z(m),p_tot(bar),T(K),p_H2O(bar),p_CO2(bar),p_O2(bar),p_H2(bar),p_CH4(bar),p_CO(bar),p_N2(bar),p_NH3(bar),p_S2(bar),p_SO2(bar),p_H2S(bar)
3.3543720538e+05,1.0332486164e-04,3.8055470150e+02,1.5224935102e-07,9.1753630279e-05,4.2542243310e-32,1.7871508934e-07,1.6834474475e-15,1.1240226436e-05,0.0000000000e+00,0.0000000000e+00,0.0000000000e+00,0.0000000000e+00,0.0000000000e+00
3.3111762845e+05,1.6333245353e-04,4.1963671197e+02,2.3954062332e-07,1.4504214545e-04,3.7293502809e-32,2.8363675212e-07,7.1155443682e-15,1.7767064741e-05,0.0000000000e+00,0.0000000000e+00,0.0000000000e+00,0.0000000000e+00,0.0000000000e+00
3.2797414915e+05,2.2652743629e-04,4.4072871340e+02,3.3099835755e-07,2.0116160129e-04,3.3650312100e-32,3.9460155676e-07,2.0012296361e-14,2.4640121552e-05,0.0000000000e+00,0.0000000000e+00,0.0000000000e+00,0.0000000000e+00,0.0000000000e+00
3.2474188305e+05,3.1417319880e-04,4.4301217240e+02,4.5885384890e-07,2.7899321668e-04,3.3222902151e-32,5.4748788054e-07,5.3739667773e-14,3.4173453248e-05,0.0000000000e+00,0.0000000000e+00,0.0000000000e+00,0.0000000000e+00,0.0000000000e+00
3.2149735328e+05,4.3572999571e-04,4.4458164496e+02,6.3618328101e-07,3.8693862949e-04,3.2926114157e-32,7.5952196804e-07,1.4402665974e-13,4.7395352420e-05,0.0000000000e+00,0.0000000000e+00,0.0000000000e+00,0.0000000000e+00,0.0000000000e+00
3.1823228144e+05,6.0431835015e-04,4.4939383322e+02,8.8142143937e-07,5.3664984274e-04,3.1998380883e-32,1.0542956559e-06,3.8991090073e-13,6.5732275023e-05,0.0000000000e+00,0.0000000000e+00,0.0000000000e+00,0.0000000000e+00,0.0000000000e+00
3.1492858117e+05,8.3813524873e-04,4.5623212027e+02,1.2205409672e-06,7.4428675211e-04,3.0638761961e-32,1.4641231541e-06,1.0636439091e-12,9.1162929816e-05,0.0000000000e+00,0.0000000000e+00,0.0000000000e+00,0.0000000000e+00,0.0000000000e+00
3.1157639458e+05,1.1624182767e-03,4.6412508309e+02,1.6894566113e-06,1.0322616343e-03,2.9015497322e-32,2.0339274960e-06,2.9179815931e-12,1.2643171976e-04,0.0000000000e+00,0.0000000000e+00,0.0000000000e+00,0.0000000000e+00,0.0000000000e+00
3.0817173884e+05,1.6121696970e-03,4.7188149732e+02,2.3381874892e-06,1.4316581319e-03,2.7372709393e-32,2.8258021649e-06,8.0209148889e-12,1.7534493704e-04,0.0000000000e+00,0.0000000000e+00,0.0000000000e+00,0.0000000000e+00,0.0000000000e+00
3.0471235679e+05,2.2359345032e-03,4.8038955788e+02,3.2346672812e-06,1.9855876957e-03,2.5530241859e-32,3.9272974142e-06,2.2176937956e-11,2.4318026916e-04,0.0000000000e+00,0.0000000000e+00,0.0000000000e+00,0.0000000000e+00,0.0000000000e+00
3.0118241496e+05,3.1010402389e-03,4.9267576819e+02,4.4679864147e-06,2.7538466360e-03,2.2831360001e-32,5.4649457532e-06,6.2652678191e-11,3.3725251086e-04,0.0000000000e+00,0.0000000000e+00,0.0000000000e+00,0.0000000000e+00,0.0000000000e+00
2.9755036332e+05,4.3008641576e-03,5.0991232301e+02,6.1562152882e-06,3.8194017391e-03,1.9075032433e-32,7.6197163638e-06,1.8326565045e-10,4.6768747006e-04,0.0000000000e+00,0.0000000000e+00,0.0000000000e+00,0.0000000000e+00,0.0000000000e+00
2.9377547545e+05,5.9649121189e-03,5.3351119271e+02,8.4476880427e-06,5.2972594703e-03,1.4288748015e-32,1.0657669994e-05,5.6684427007e-10,6.4854903428e-04,0.0000000000e+00,0.0000000000e+00,0.0000000000e+00,0.0000000000e+00,0.0000000000e+00
2.8980260793e+05,8.2727971129e-03,5.6618438244e+02,1.1517782361e-05,7.3470268529e-03,9.0452266866e-33,1.4977395058e-05,1.9101949225e-09,8.9927706432e-04,0.0000000000e+00,0.0000000000e+00,0.0000000000e+00,0.0000000000e+00,0.0000000000e+00
2.8558688426e+05,1.1473626217e-02,6.0174984620e+02,1.5701844986e-05,1.0189953981e-02,5.7626693503e-33,2.1037093376e-05,6.4115742703e-09,1.2469348734e-03,0.0000000000e+00,0.0000000000e+00,0.0000000000e+00,0.0000000000e+00,0.0000000000e+00
2.8111328388e+05,1.5912888564e-02,6.3926647400e+02,2.1713551938e-05,1.4132642001e-02,5.3837565245e-33,2.9222510566e-05,1.7695236495e-08,1.7293056396e-03,0.0000000000e+00,0.0000000000e+00,0.0000000000e+00,0.0000000000e+00,0.0000000000e+00
2.7637154628e+05,2.2069746536e-02,6.7856076541e+02,3.1282444964e-05,1.9599537659e-02,1.4907925536e-32,3.9354285647e-05,2.8051030946e-08,2.3995574377e-03,0.0000000000e+00,0.0000000000e+00,0.0000000000e+00,0.0000000000e+00,0.0000000000e+00
2.7134999121e+05,3.0608755299e-02,7.1950869655e+02,4.7887380925e-05,2.7178056242e-02,2.4225817002e-31,5.0121154412e-05,1.7815016886e-08,3.3325964033e-03,0.0000000000e+00,0.0000000000e+00,0.0000000000e+00,0.0000000000e+00,0.0000000000e+00
2.6603743497e+05,4.2451593153e-02,7.6212383395e+02,7.6340585672e-05,3.7683716119e-02,2.1062083644e-29,5.9628828987e-05,4.5990680376e-09,4.6318874694e-03,0.0000000000e+00,0.0000000000e+00,0.0000000000e+00,0.0000000000e+00,0.0000000000e+00
2.6042225760e+05,5.8876545081e-02,8.0653876007e+02,1.2122914600e-04,5.2248654986e-02,4.0050537471e-27,6.7359603512e-05,7.4635951844e-10,6.4393302720e-03,0.0000000000e+00,0.0000000000e+00,0.0000000000e+00,0.0000000000e+00,0.0000000000e+00
2.5449197993e+05,8.1656477490e-02,8.5287918265e+02,1.8701249801e-04,7.2447160082e-02,7.0822631129e-25,7.4548119603e-05,1.1947735443e-10,8.9487812406e-03,0.0000000000e+00,0.0000000000e+00,0.0000000000e+00,0.0000000000e+00,0.0000000000e+00
2.4823339387e+05,1.1325019678e-01,9.0123647368e+02,2.8006873565e-04,1.0045690170e-01,8.0835205027e-23,8.2692451853e-05,2.3347559451e-11,1.2431901982e-02,0.0000000000e+00,0.0000000000e+00,0.0000000000e+00,0.0000000000e+00,0.0000000000e+00
2.4163271140e+05,1.5706784648e-01,9.5169929277e+02,4.1036864911e-04,1.3930282934e-01,5.7904228646e-21,9.2748694181e-05,5.7487287095e-12,1.7263835360e-02,0.0000000000e+00,0.0000000000e+00,0.0000000000e+00,0.0000000000e+00,0.0000000000e+00
2.3467579495e+05,2.1783898924e-01,1.0043625265e+03,5.9243343529e-04,1.9317742728e-01,2.8132740762e-19,1.0534546894e-04,1.7285395787e-12,2.3966578350e-02,0.0000000000e+00,0.0000000000e+00,0.0000000000e+00,0.0000000000e+00,0.0000000000e+00
2.2735201049e+05,3.0212310346e-01,1.0592997323e+03,8.4665275343e-04,2.6789433288e-01,1.0011917421e-17,1.2110317294e-04,6.1261539665e-13,3.3264679876e-02,0.0000000000e+00,0.0000000000e+00,0.0000000000e+00,0.0000000000e+00,0.0000000000e+00
2.1965119246e+05,4.1901759627e-01,1.1165641547e+03,1.2013838280e-03,3.7151884864e-01,2.7545709605e-16,1.4080760579e-04,2.4948986061e-13,4.6161974869e-02,0.0000000000e+00,0.0000000000e+00,0.0000000000e+00,0.0000000000e+00,0.0000000000e+00
2.1155860011e+05,5.8113975388e-01,1.1762111446e+03,1.6959872376e-03,5.1523356858e-01,6.0691280288e-15,1.6551126836e-04,1.1484689068e-13,6.4052246277e-02,0.0000000000e+00,0.0000000000e+00,0.0000000000e+00,0.0000000000e+00,0.0000000000e+00
2.0305930583e+05,8.0598861849e-01,1.2382742785e+03,2.3851064594e-03,7.1454853340e-01,1.0954948934e-13,1.9662075262e-04,5.9131661470e-14,8.8868202100e-02,0.0000000000e+00,0.0000000000e+00,0.0000000000e+00,0.0000000000e+00,0.0000000000e+00
1.9413823345e+05,1.1178337892e+00,1.3028123315e+03,3.3446428342e-03,9.9097845453e-01,1.6491634434e-12,2.3597545903e-04,3.3764356539e-14,1.2328865808e-01,0.0000000000e+00,0.0000000000e+00,0.0000000000e+00,0.0000000000e+00,0.0000000000e+00
1.8477991119e+05,1.5503350191e+00,1.3699171333e+03,4.6799867532e-03,1.3743574516e+00,2.1023234981e-11,2.8598992333e-04,2.1222739689e-14,1.7103124586e-01,0.0000000000e+00,0.0000000000e+00,0.0000000000e+00,0.0000000000e+00,0.0000000000e+00
1.7496826341e+05,2.1501753613e+00,1.4397197027e+03,6.5374786412e-03,1.9060638598e+00,2.3019378188e-10,3.4982201925e-04,1.4578200826e-14,2.3725156248e-01,0.0000000000e+00,0.0000000000e+00,0.0000000000e+00,0.0000000000e+00,0.0000000000e+00
1.6468634392e+05,2.9821000153e+00,1.5123780610e+03,9.1202433308e-03,2.6434850348e+00,2.1928923117e-09,4.3162865545e-04,1.0870699810e-14,3.2910037093e-01,0.0000000000e+00,0.0000000000e+00,0.0000000000e+00,0.0000000000e+00,0.0000000000e+00
1.5391637121e+05,4.1359047552e+00,1.5880482813e+03,1.2710085586e-02,3.6662110255e+00,1.8374308411e-08,5.3691671504e-04,8.7487656660e-15,4.5649572112e-01,0.0000000000e+00,0.0000000000e+00,0.0000000000e+00,0.0000000000e+00,0.0000000000e+00
1.4264584150e+05,5.7361282507e+00,1.6668910773e+03,1.7697724873e-02,5.0846347600e+00,1.3672378978e-07,6.7298626561e-04,7.5597515777e-15,6.3318905971e-01,0.0000000000e+00,0.0000000000e+00,0.0000000000e+00,0.0000000000e+00,0.0000000000e+00
1.3086241197e+05,7.9554944458e+00,1.7490698929e+03,2.4624154634e-02,7.0518383572e+00,9.1113035770e-07,8.4954838488e-04,6.9811501998e-15,8.7826341998e-01,0.0000000000e+00,0.0000000000e+00,0.0000000000e+00,0.0000000000e+00,0.0000000000e+00
1.1854573172e+05,1.1033555930e+01,1.8347448757e+03,3.4236915997e-02,9.7801257571e+00,5.4779610962e-06,1.0795149040e-03,6.8609692267e-15,1.2181896858e+00,0.0000000000e+00,0.0000000000e+00,0.0000000000e+00,0.0000000000e+00,0.0000000000e+00
1.0567409383e+05,1.5302550620e+01,1.9240915993e+03,4.7565255199e-02,1.3563918438e+01,2.9918063793e-05,1.3800081049e-03,7.1468164062e-15,1.6896980096e+00,0.0000000000e+00,0.0000000000e+00,0.0000000000e+00,0.0000000000e+00,0.0000000000e+00
9.2224090318e+04,2.1223262651e+01,2.0172911996e+03,6.6017585767e-02,1.8811345905e+01,1.4932958343e-04,1.7737197263e-03,7.8610320801e-15,2.3438538303e+00,0.0000000000e+00,0.0000000000e+00,0.0000000000e+00,0.0000000000e+00,0.0000000000e+00
7.8170221936e+04,2.9434758214e+01,2.1145441656e+03,9.1502182622e-02,2.6087661686e+01,6.8490200804e-04,2.2906390192e-03,9.0984873794e-15,3.2519627508e+00,0.0000000000e+00,0.0000000000e+00,0.0000000000e+00,0.0000000000e+00,0.0000000000e+00
6.3508546740e+04,4.0823364690e+01,2.2082266364e+03,1.2661647525e-01,3.6175341070e+01,2.6067705621e-03,2.9854026265e-03,1.1709811979e-14,4.5138889879e+00,0.0000000000e+00,0.0000000000e+00,0.0000000000e+00,0.0000000000e+00,0.0000000000e+00
4.8259629873e+04,5.6618338512e+01,2.2985914887e+03,1.7488883168e-01,5.0155580641e+01,8.4965090062e-03,3.9201638439e-03,1.6464433794e-14,6.2706907362e+00,0.0000000000e+00,0.0000000000e+00,0.0000000000e+00,0.0000000000e+00,0.0000000000e+00
3.2425301570e+04,7.8524547897e+01,2.3900474147e+03,2.4097864900e-01,6.9516995725e+01,2.5491408118e-02,5.1692727507e-03,2.4331884247e-14,8.7250196125e+00,0.0000000000e+00,0.0000000000e+00,0.0000000000e+00,0.0000000000e+00,0.0000000000e+00
1.5976175477e+04,1.0890649186e+02,2.4883938948e+03,3.3070915052e-01,9.6288591849e+01,7.5140591121e-02,6.8277978638e-03,3.6594657778e-14,1.2180839610e+01,0.0000000000e+00,0.0000000000e+00,0.0000000000e+00,0.0000000000e+00,0.0000000000e+00
3.6055424165e+03,1.3680331986e+02,2.5703311448e+03,4.1010853925e-01,1.2071437770e+02,1.7131738019e-01,8.2759629963e-03,4.7352592813e-14,1.5454172386e+01,0.0000000000e+00,0.0000000000e+00,0.0000000000e+00,0.0000000000e+00,0.0000000000e+00
4.4829878433e+01,1.4604059187e+02,2.6411631720e+03,4.2985118691e-01,1.2842040298e+02,3.2759330056e-01,8.6138316540e-03,4.1916723671e-14,1.6783592150e+01,0.0000000000e+00,0.0000000000e+00,0.0000000000e+00,0.0000000000e+00,0.0000000000e+00
