z(m),p_tot(bar),T(K),p_H2O(bar),p_CO2(bar),p_O2(bar),p_H2(bar),p_CH4(bar),p_CO(bar),p_N2(bar),p_NH3(bar),p_S2(bar),p_SO2(bar),p_H2S(bar)
3.3236564466e+05,1.0376960504e-04,1.6532177812e+02,1.0039454687e-04,2.1548647626e-06,4.6456480688e-28,1.2180469441e-06,1.8531515265e-19,2.7609128360e-09,0.0000000000e+00,0.0000000000e+00,0.0000000000e+00,0.0000000000e+00,0.0000000000e+00
3.3222082235e+05,1.7420172716e-04,1.2786475792e+02,1.6853589800e-04,3.6174470853e-06,4.6593426812e-28,2.0447776896e-06,8.7575647894e-19,4.6358847284e-09,0.0000000000e+00,0.0000000000e+00,0.0000000000e+00,0.0000000000e+00,0.0000000000e+00
3.3214224220e+05,2.5220523348e-04,1.2542272929e+02,2.4400237708e-04,5.2372561899e-06,4.6600170705e-28,2.9603817947e-06,2.6574491554e-18,6.7118009488e-09,0.0000000000e+00,0.0000000000e+00,0.0000000000e+00,0.0000000000e+00,0.0000000000e+00
3.3206437085e+05,3.6513690670e-04,1.2580336752e+02,3.5326100081e-04,7.5823784577e-06,4.6599041146e-28,4.2859723438e-06,8.0644334918e-18,9.7171723478e-09,0.0000000000e+00,0.0000000000e+00,0.0000000000e+00,0.0000000000e+00,0.0000000000e+00
3.3198549399e+05,5.2863677248e-04,1.2891636878e+02,5.1144311029e-04,1.0977592441e-05,4.6590607002e-28,6.2051318730e-06,2.4474171517e-17,1.4068103057e-08,0.0000000000e+00,0.0000000000e+00,0.0000000000e+00,0.0000000000e+00,0.0000000000e+00
3.3190414415e+05,7.6534809847e-04,1.3403941359e+02,7.4045551133e-04,1.5893105049e-05,4.6575999368e-28,8.9836469668e-06,7.4278549426e-17,2.0366986472e-08,0.0000000000e+00,0.0000000000e+00,0.0000000000e+00,0.0000000000e+00,0.0000000000e+00
3.3181915077e+05,1.1080532841e-03,1.4081067260e+02,1.0720143709e-03,2.3009671115e-05,4.6554666418e-28,1.3006317432e-05,2.2544571052e-16,2.9485819778e-08,0.0000000000e+00,0.0000000000e+00,0.0000000000e+00,0.0000000000e+00,0.0000000000e+00
3.3172959308e+05,1.6042139293e-03,1.4890688099e+02,1.5520376218e-03,3.3312871920e-05,4.6526020243e-28,1.8830247709e-05,6.8429961915e-16,4.2686882260e-08,0.0000000000e+00,0.0000000000e+00,0.0000000000e+00,0.0000000000e+00,0.0000000000e+00
3.3163442704e+05,2.3225438416e-03,1.5902532670e+02,2.2470041856e-03,4.8229610014e-05,4.6485065724e-28,2.7262001474e-05,2.0772709696e-15,6.1796924470e-08,0.0000000000e+00,0.0000000000e+00,0.0000000000e+00,0.0000000000e+00,0.0000000000e+00
3.3153246111e+05,3.3625252825e-03,1.7096882397e+02,3.2531607067e-03,6.9825722756e-05,4.6428469314e-28,3.9469303809e-05,6.3065855440e-15,8.9459832528e-08,0.0000000000e+00,0.0000000000e+00,0.0000000000e+00,0.0000000000e+00,0.0000000000e+00
3.3142295681e+05,4.8681863711e-03,1.8344489075e+02,4.7098508511e-03,1.0109208248e-04,4.6356830593e-28,5.7142760824e-05,1.9149086793e-14,1.2950260159e-07,0.0000000000e+00,0.0000000000e+00,0.0000000000e+00,0.0000000000e+00,0.0000000000e+00
3.3130585816e+05,7.0480476880e-03,1.9537549431e+02,6.8188131573e-03,1.4635880522e-04,4.6275244428e-28,8.2729993114e-05,5.8148289702e-14,1.8746564855e-07,0.0000000000e+00,0.0000000000e+00,0.0000000000e+00,0.0000000000e+00,0.0000000000e+00
3.3118135536e+05,1.0204000510e-02,2.0735938383e+02,9.8721200117e-03,2.1189493868e-04,4.6177091684e-28,1.1977461481e-04,1.7659726538e-13,2.7136441271e-07,0.0000000000e+00,0.0000000000e+00,0.0000000000e+00,0.0000000000e+00,0.0000000000e+00
3.3104947580e+05,1.4773116048e-02,2.1908081084e+02,1.4292627062e-02,3.0677666733e-04,4.6063559016e-28,1.7340699005e-04,5.3639634604e-13,3.9280126014e-07,0.0000000000e+00,0.0000000000e+00,0.0000000000e+00,0.0000000000e+00,0.0000000000e+00
3.3091022458e+05,2.1388175897e-02,2.3111408370e+02,2.0692534920e-02,4.4414429776e-04,4.5924265781e-28,2.5105475616e-04,1.6295913084e-12,5.6855701986e-07,0.0000000000e+00,0.0000000000e+00,0.0000000000e+00,0.0000000000e+00,0.0000000000e+00
3.3076309460e+05,3.0965306624e-02,2.4463706448e+02,2.9958173446e-02,6.4302210139e-04,4.5736790464e-28,3.6347150854e-04,4.9527077756e-12,8.2288648223e-07,0.0000000000e+00,0.0000000000e+00,0.0000000000e+00,0.0000000000e+00,0.0000000000e+00
3.3060739887e+05,4.4830855092e-02,2.5860843747e+02,4.3372750501e-02,9.3095299766e-04,4.5500064480e-28,5.2622605650e-04,1.5058569788e-11,1.1908836996e-06,0.0000000000e+00,0.0000000000e+00,0.0000000000e+00,0.0000000000e+00,0.0000000000e+00
3.3044367798e+05,6.4905075628e-02,2.7012143439e+02,6.2794068949e-02,1.3478129733e-03,4.5266405379e-28,7.6186582211e-04,4.5785898071e-11,1.7234747375e-06,0.0000000000e+00,0.0000000000e+00,0.0000000000e+00,0.0000000000e+00,0.0000000000e+00
3.3027424453e+05,9.3968068054e-02,2.7618757747e+02,9.0911800917e-02,1.9513329761e-03,4.5127877878e-28,1.1030117111e-03,1.3910084368e-10,2.4946210857e-06,0.0000000000e+00,0.0000000000e+00,0.0000000000e+00,0.0000000000e+00,0.0000000000e+00
3.3010147641e+05,1.3604479663e-01,2.8028685979e+02,1.3162000348e-01,2.8250951682e-03,4.5027305178e-28,1.5969137038e-03,4.2246684092e-10,3.6110343439e-06,0.0000000000e+00,0.0000000000e+00,0.0000000000e+00,0.0000000000e+00,0.0000000000e+00
3.2992502205e+05,1.9696251155e-01,2.8791096587e+02,1.9055639788e-01,4.0901086069e-03,4.4825191905e-28,2.3119715417e-03,1.2841605909e-09,5.2261617373e-06,0.0000000000e+00,0.0000000000e+00,0.0000000000e+00,0.0000000000e+00,0.0000000000e+00
3.2974121365e+05,2.8515777095e-01,3.0381117273e+02,2.7588314630e-01,5.9215691189e-03,4.4328191401e-28,3.3472118085e-03,3.9130482862e-09,7.5598364467e-06,0.0000000000e+00,0.0000000000e+00,0.0000000000e+00,0.0000000000e+00,0.0000000000e+00
3.2954355410e+05,4.1284482867e-01,3.3281766980e+02,3.9941723692e-01,8.5731281769e-03,4.3102135090e-28,4.8460032780e-03,1.1998557385e-08,1.0921426808e-05,0.0000000000e+00,0.0000000000e+00,0.0000000000e+00,0.0000000000e+00,0.0000000000e+00
3.2628156071e+05,5.9770719903e-01,3.6438511569e+02,5.7826705285e-01,1.2412013960e-02,4.1145295083e-28,7.0158906264e-03,3.7042534635e-08,1.5755481000e-05,0.0000000000e+00,0.0000000000e+00,0.0000000000e+00,0.0000000000e+00,0.0000000000e+00
3.1905948826e+05,8.6534666529e-01,3.9866844840e+02,8.3720181468e-01,1.7969905484e-02,3.8035138440e-28,1.0157401121e-02,1.1572929455e-07,2.2673281642e-05,0.0000000000e+00,0.0000000000e+00,0.0000000000e+00,0.0000000000e+00,0.0000000000e+00
3.1117911956e+05,1.2528288974e+00,4.3581115108e+02,1.2120818537e+00,2.6016558195e-02,3.3243956663e-28,1.4705125038e-02,3.6910689400e-07,3.2487300387e-05,0.0000000000e+00,0.0000000000e+00,0.0000000000e+00,0.0000000000e+00,0.0000000000e+00
3.0259002845e+05,1.8138167155e+00,4.7594592680e+02,1.7548259926e+00,3.7666343916e-02,2.6411306716e-28,2.1287912676e-02,1.2193552197e-06,4.6206491849e-05,0.0000000000e+00,0.0000000000e+00,0.0000000000e+00,0.0000000000e+00,0.0000000000e+00
2.9324030325e+05,2.6260019098e+00,5.1920429657e+02,2.5406043367e+00,5.4532014621e-02,1.8088594195e-28,3.0812155865e-02,4.2530324324e-06,6.4959272269e-05,0.0000000000e+00,0.0000000000e+00,0.0000000000e+00,0.0000000000e+00,0.0000000000e+00
2.8307672821e+05,3.8018648586e+00,5.6571209559e+02,3.6782620341e+00,7.8944946895e-02,1.0476150184e-28,4.4574908356e-02,1.5755030226e-05,9.0091186745e-05,0.0000000000e+00,0.0000000000e+00,0.0000000000e+00,0.0000000000e+00,0.0000000000e+00
2.7204519082e+05,5.5042520529e+00,6.1558468912e+02,5.3254309333e+00,1.1426723011e-01,6.4768571883e-29,6.4404396469e-02,5.6721165279e-05,1.2536479034e-04,0.0000000000e+00,0.0000000000e+00,0.0000000000e+00,0.0000000000e+00,0.0000000000e+00
2.6015170510e+05,7.9689288780e+00,6.6892818368e+02,7.7102628161e+00,1.6537246348e-01,1.1564799125e-28,9.3014963013e-02,1.3776225114e-04,1.8917276267e-04,0.0000000000e+00,0.0000000000e+00,0.0000000000e+00,0.0000000000e+00,0.0000000000e+00
2.4736249177e+05,1.1537231008e+01,7.2583402145e+02,1.1162527737e+01,2.3941486903e-01,3.0156151541e-27,1.3488036737e-01,1.2552834906e-04,3.5228571311e-04,0.0000000000e+00,0.0000000000e+00,0.0000000000e+00,0.0000000000e+00,0.0000000000e+00
2.3356465309e+05,1.6703336343e+01,7.8637573461e+02,1.6160589756e+01,3.4646637625e-01,1.0573962943e-24,1.9554215628e-01,4.3075760978e-05,7.9586104701e-04,0.0000000000e+00,0.0000000000e+00,0.0000000000e+00,0.0000000000e+00,0.0000000000e+00
2.1870655989e+05,2.4182704218e+01,8.5060989265e+02,2.3397423775e+01,5.0096033784e-01,6.2592722776e-22,2.8260894089e-01,1.1795638138e-05,1.8463757466e-03,0.0000000000e+00,0.0000000000e+00,0.0000000000e+00,0.0000000000e+00,0.0000000000e+00
2.0273373161e+05,3.5011160125e+01,9.1858055646e+02,3.3875550642e+01,7.2393830812e-01,1.8660738983e-19,4.0785254194e-01,4.0810088290e-06,4.0260709116e-03,0.0000000000e+00,0.0000000000e+00,0.0000000000e+00,0.0000000000e+00,0.0000000000e+00
1.8559195471e+05,5.0688348261e+01,9.9032340003e+02,4.9046627125e+01,1.0457023324e+00,2.6048319493e-17,5.8809489743e-01,1.8480589133e-06,8.2315873395e-03,0.0000000000e+00,0.0000000000e+00,0.0000000000e+00,0.0000000000e+00,0.0000000000e+00
1.6710724032e+05,7.3385418827e+01,1.0658766080e+03,7.1012668859e+01,1.5098390807e+00,2.0453485514e-15,8.4732357593e-01,1.0267780185e-06,1.6023555500e-02,0.0000000000e+00,0.0000000000e+00,0.0000000000e+00,0.0000000000e+00,0.0000000000e+00
1.4719684615e+05,1.0624571289e+02,1.1452876569e+03,1.0281732750e+02,2.1790810131e+00,1.0356899520e-13,1.2199090131e+00,6.6666121733e-07,3.0028414612e-02,0.0000000000e+00,0.0000000000e+00,0.0000000000e+00,0.0000000000e+00,0.0000000000e+00
1.2595217734e+05,1.5382008700e+02,1.2286177217e+03,1.4886761946e+02,3.1437616524e+00,3.6602178595e-12,1.7551122675e+00,4.9206850654e-07,5.4536571712e-02,0.0000000000e+00,0.0000000000e+00,0.0000000000e+00,0.0000000000e+00,0.0000000000e+00
1.0333464904e+05,2.2269716603e+02,1.3159485310e+03,2.1554454857e+02,4.5340095501e+00,9.4864697405e-11,2.5235536150e+00,4.0606622802e-07,9.6412824201e-02,0.0000000000e+00,0.0000000000e+00,0.0000000000e+00,0.0000000000e+00,0.0000000000e+00
7.9294852682e+04,3.2241580879e+02,1.4073870597e+03,3.1208728278e+02,6.5373399913e+00,1.8696114334e-09,3.6266485937e+00,3.7028250435e-07,1.6647822999e-01,0.0000000000e+00,0.0000000000e+00,0.0000000000e+00,0.0000000000e+00,0.0000000000e+00
5.3780984985e+04,4.6678615454e+02,1.5030646159e+03,4.5187318317e+02,9.4240465349e+00,2.8869139272e-08,5.2100364970e+00,3.6956410960e-07,2.8158507031e-01,0.0000000000e+00,0.0000000000e+00,0.0000000000e+00,0.0000000000e+00,0.0000000000e+00
2.6737495607e+04,6.7580220364e+02,1.6031379095e+03,6.5427097254e+02,1.3583864955e+01,3.5834334987e-07,7.4830616070e+00,4.0043965210e-07,4.6771817682e-01,0.0000000000e+00,0.0000000000e+00,0.0000000000e+00,0.0000000000e+00,0.0000000000e+00
6.0423505500e+03,8.7471878217e+02,1.6758935760e+03,8.4690338235e+02,1.7527393106e+01,1.8569783793e-06,9.6312298758e+00,4.4177608352e-07,6.6014075224e-01,0.0000000000e+00,0.0000000000e+00,0.0000000000e+00,0.0000000000e+00,0.0000000000e+00
7.2383340163e+01,9.4181412501e+02,1.6971671860e+03,9.1188135834e+02,1.8854943263e+01,2.9262981208e-06,1.0353284604e+01,4.5729720942e-07,7.2766051550e-01,0.0000000000e+00,0.0000000000e+00,0.0000000000e+00,0.0000000000e+00,0.0000000000e+00
