z(m),p_tot(bar),T(K),p_H2O(bar),p_CO2(bar),p_O2(bar),p_H2(bar),p_CH4(bar),p_CO(bar),p_N2(bar),p_NH3(bar),p_S2(bar),p_SO2(bar),p_H2S(bar)
3.4847930717e+05,1.0348704401e-04,3.5035969106e+02,6.3674526523e-08,8.8568859686e-05,2.4535490074e-32,1.0120576457e-07,9.3590997240e-16,1.4754554203e-05,0.0000000000e+00,0.0000000000e+00,0.0000000000e+00,0.0000000000e+00,0.0000000000e+00
3.4422013243e+05,1.6722058165e-04,3.8924900915e+02,1.0252025125e-07,1.4311544266e-04,2.2464177132e-32,1.6390338484e-07,4.1284641170e-15,2.3840838061e-05,0.0000000000e+00,0.0000000000e+00,0.0000000000e+00,0.0000000000e+00,0.0000000000e+00
3.4112953817e+05,2.3558603861e-04,4.0438725107e+02,1.4414760638e-07,2.0162602111e-04,2.1399423815e-32,2.3119891332e-07,1.1830879680e-14,3.3587572673e-05,0.0000000000e+00,0.0000000000e+00,0.0000000000e+00,0.0000000000e+00,0.0000000000e+00
3.3797381005e+05,3.3190161784e-04,4.0558885656e+02,2.0304536835e-07,2.8405803908e-04,2.1308336162e-32,3.2575588702e-07,3.3153455143e-14,4.7319088220e-05,0.0000000000e+00,0.0000000000e+00,0.0000000000e+00,0.0000000000e+00,0.0000000000e+00
3.3481762794e+05,4.6759427926e-04,4.0563657382e+02,2.8605408531e-07,4.0019005105e-04,2.1304531952e-32,4.5893851257e-07,9.2715056368e-14,6.6665000596e-05,0.0000000000e+00,0.0000000000e+00,0.0000000000e+00,0.0000000000e+00,0.0000000000e+00
3.3165168184e+05,6.5876271232e-04,4.0900318402e+02,4.0279822988e-07,5.6380086405e-04,2.1043302083e-32,6.4677181280e-07,2.6087764147e-13,9.3920030584e-05,0.0000000000e+00,0.0000000000e+00,0.0000000000e+00,0.0000000000e+00,0.0000000000e+00
3.2845316172e+05,9.2808729790e-04,4.1462448496e+02,5.6697211683e-07,7.9430359811e-04,2.0589502390e-32,9.1169818525e-07,7.3755089365e-13,1.3231663776e-04,0.0000000000e+00,0.0000000000e+00,0.0000000000e+00,0.0000000000e+00,0.0000000000e+00
3.2520800667e+05,1.3075209274e-03,4.2215692175e+02,7.9773048414e-07,1.1190418211e-03,1.9946576784e-32,1.2854674159e-06,2.0956877322e-12,1.8641165516e-04,0.0000000000e+00,0.0000000000e+00,0.0000000000e+00,0.0000000000e+00,0.0000000000e+00
3.2190549221e+05,1.8420799200e-03,4.3071270823e+02,1.1220430456e-06,1.5765489315e-03,1.9168757984e-32,1.8128334418e-06,5.9788548103e-12,2.6261988161e-04,0.0000000000e+00,0.0000000000e+00,0.0000000000e+00,0.0000000000e+00,0.0000000000e+00
3.1853898780e+05,2.5951847964e-03,4.3927956254e+02,1.5778994253e-06,2.2210966464e-03,1.8339900160e-32,2.5568353104e-06,1.7095495954e-11,3.6998583488e-04,0.0000000000e+00,0.0000000000e+00,0.0000000000e+00,0.0000000000e+00,0.0000000000e+00
3.1509813141e+05,3.6561845414e-03,4.5075517050e+02,2.2168960719e-06,3.1291607715e-03,1.7156832526e-32,3.6082065391e-06,4.9438278168e-11,5.2124332351e-04,0.0000000000e+00,0.0000000000e+00,0.0000000000e+00,0.0000000000e+00,0.0000000000e+00
3.1155258110e+05,5.1509570414e-03,4.6810897820e+02,3.1079305698e-06,4.4084837563e-03,1.5233807164e-32,5.0985181181e-06,1.4677748812e-10,7.3432977820e-04,0.0000000000e+00,0.0000000000e+00,0.0000000000e+00,0.0000000000e+00,0.0000000000e+00
3.0785802274e+05,7.2568433409e-03,4.9115347246e+02,4.3430620010e-06,6.2108640450e-03,1.2523719854e-32,7.2179754937e-06,4.5296953372e-10,1.0345099939e-03,0.0000000000e+00,0.0000000000e+00,0.0000000000e+00,0.0000000000e+00,0.0000000000e+00
3.0395179221e+05,1.0223687530e-02,5.2457739590e+02,6.0247397743e-06,8.7501754553e-03,8.6619023111e-33,1.0261075199e-05,1.5245432270e-09,1.4573561155e-03,0.0000000000e+00,0.0000000000e+00,0.0000000000e+00,0.0000000000e+00,0.0000000000e+00
2.9978390113e+05,1.4403478456e-02,5.6024181885e+02,8.3129801652e-06,1.2327715545e-02,5.3210172554e-33,1.4624440019e-05,5.4422767462e-09,2.0529982250e-03,0.0000000000e+00,0.0000000000e+00,0.0000000000e+00,0.0000000000e+00,0.0000000000e+00
2.9534208990e+05,2.0292109967e-02,5.9787047612e+02,1.1457354227e-05,1.7367975573e-02,3.2361933410e-33,2.0834026356e-05,1.9497738540e-08,2.8920662338e-03,0.0000000000e+00,0.0000000000e+00,0.0000000000e+00,0.0000000000e+00,0.0000000000e+00
2.9061149257e+05,2.8588214172e-02,6.3745747962e+02,1.6035979022e-05,2.4468783804e-02,2.8650358531e-33,2.9396664491e-05,5.7793549874e-08,4.0742828230e-03,0.0000000000e+00,0.0000000000e+00,0.0000000000e+00,0.0000000000e+00,0.0000000000e+00
2.8557546301e+05,4.0276047727e-02,6.7880594963e+02,2.3608015982e-05,3.4471468474e-02,8.1473291799e-33,4.0370751795e-05,9.5582729577e-08,5.7409835756e-03,0.0000000000e+00,0.0000000000e+00,0.0000000000e+00,0.0000000000e+00,0.0000000000e+00
2.8022356694e+05,5.6742264863e-02,7.2192328870e+02,3.7588202612e-05,4.8560089427e-02,1.6320447338e-31,5.2698679988e-05,5.8849483289e-08,8.0925295046e-03,0.0000000000e+00,0.0000000000e+00,0.0000000000e+00,0.0000000000e+00,0.0000000000e+00
2.7454742605e+05,7.9940431188e-02,7.6693159591e+02,6.2981164344e-05,6.8402974068e-02,2.0017580540e-29,6.4355971850e-05,1.3880803368e-08,1.1411136527e-02,0.0000000000e+00,0.0000000000e+00,0.0000000000e+00,0.0000000000e+00,0.0000000000e+00
2.6853125912e+05,1.1262279632e-01,8.1398929683e+02,1.0482473980e-04,9.6352069051e-02,5.1979174787e-27,7.4606837160e-05,2.0860810616e-09,1.6092624910e-02,0.0000000000e+00,0.0000000000e+00,0.0000000000e+00,0.0000000000e+00,0.0000000000e+00
2.6215626314e+05,1.5866682307e-01,8.6324086014e+02,1.6811639145e-04,1.3572361102e-01,1.1321967535e-24,8.4678121046e-05,3.2363090827e-10,2.2692284346e-02,0.0000000000e+00,0.0000000000e+00,0.0000000000e+00,0.0000000000e+00,0.0000000000e+00
2.5541094423e+05,2.2353521281e-01,9.1478861438e+02,2.5998486544e-04,1.9118900092e-01,1.4819886001e-22,9.6161507187e-05,6.3101859176e-11,3.1992751304e-02,0.0000000000e+00,0.0000000000e+00,0.0000000000e+00,0.0000000000e+00,0.0000000000e+00
2.4828514868e+05,3.1492400489e-01,9.6872246482e+02,3.9156688755e-04,2.6932855908e-01,1.1788863005e-20,1.1018461606e-04,1.5669111300e-11,4.5097633541e-02,0.0000000000e+00,0.0000000000e+00,0.0000000000e+00,0.0000000000e+00,0.0000000000e+00
2.4075820277e+05,4.4367564113e-01,1.0251370354e+03,5.7927056236e-04,3.7941177234e-01,6.2719173638e-19,1.2761416442e-04,4.7652144181e-12,6.3562621396e-02,0.0000000000e+00,0.0000000000e+00,0.0000000000e+00,0.0000000000e+00,0.0000000000e+00
2.3280944017e+05,6.2506532203e-01,1.0840909149e+03,8.4647476907e-04,5.3449716422e-01,2.4181638895e-17,1.4940782551e-04,1.7126163387e-12,8.9579863265e-02,0.0000000000e+00,0.0000000000e+00,0.0000000000e+00,0.0000000000e+00,0.0000000000e+00
2.2442739104e+05,8.8061326921e-01,1.1456539677e+03,1.2262313428e-03,7.5298353679e-01,7.1320487232e-16,1.7680112168e-04,7.0990870436e-13,1.2623709617e-01,0.0000000000e+00,0.0000000000e+00,0.0000000000e+00,0.0000000000e+00,0.0000000000e+00
2.1560057469e+05,1.2406379023e+00,1.2098926668e+03,1.7651928287e-03,1.0607933607e+00,1.6656912404e-14,2.1144769183e-04,3.3421801591e-13,1.7788373087e-01,0.0000000000e+00,0.0000000000e+00,0.0000000000e+00,0.0000000000e+00,0.0000000000e+00
2.0630574738e+05,1.7478528412e+00,1.2768844834e+03,2.5291982567e-03,1.4944379852e+00,3.1554835645e-13,2.5555465113e-04,1.7681194525e-13,2.5065163403e-01,0.0000000000e+00,0.0000000000e+00,0.0000000000e+00,0.0000000000e+00,0.0000000000e+00
1.9652215800e+05,2.4624344854e+00,1.3467512661e+03,3.6112128436e-03,2.1053699592e+00,4.9456640030e-12,3.1202987952e-04,1.0414645457e-13,3.5317317527e-01,0.0000000000e+00,0.0000000000e+00,0.0000000000e+00,0.0000000000e+00,0.0000000000e+00
1.8623823236e+05,3.4691613915e+00,1.4196424058e+03,5.1424014687e-03,2.9660555974e+00,6.5219158815e-11,3.8474373814e-04,6.7754160427e-14,4.9762009792e-01,0.0000000000e+00,0.0000000000e+00,0.0000000000e+00,0.0000000000e+00,0.0000000000e+00
1.7543897019e+05,4.8874724717e+00,1.4957196564e+03,7.3078284890e-03,4.1786159176e+00,7.3422190271e-10,4.7885062930e-04,4.8331745429e-14,7.0112757298e-01,0.0000000000e+00,0.0000000000e+00,0.0000000000e+00,0.0000000000e+00,0.0000000000e+00
1.6409664398e+05,6.8856373242e+00,1.5751498114e+03,1.0368412358e-02,5.8869116259e+00,7.1453058546e-09,6.0126601946e-04,3.7563019304e-14,9.8784134815e-01,0.0000000000e+00,0.0000000000e+00,0.0000000000e+00,0.0000000000e+00,0.0000000000e+00
1.5218839866e+05,9.7007198783e+00,1.6581173889e+03,1.4691758632e-02,8.2935974788e+00,6.0796020329e-08,7.6127997019e-04,3.1619100749e-14,1.3917886304e+00,0.0000000000e+00,0.0000000000e+00,0.0000000000e+00,0.0000000000e+00,0.0000000000e+00
1.3969992964e+05,1.3666703854e+01,1.7448187816e+03,2.0795170481e-02,1.1684184724e+01,4.5690378596e-07,9.7138864166e-04,2.8668683367e-14,1.9609062332e+00,0.0000000000e+00,0.0000000000e+00,0.0000000000e+00,0.0000000000e+00,0.0000000000e+00
1.2660868623e+05,1.9254116868e+01,1.8354923266e+03,2.9405048659e-02,1.6460942178e+01,3.0624236033e-06,1.2483768889e-03,2.7847441843e-14,2.7627154738e+00,0.0000000000e+00,0.0000000000e+00,0.0000000000e+00,0.0000000000e+00,0.0000000000e+00
1.1287850042e+05,2.7125854216e+01,1.9303687143e+03,4.1537239287e-02,2.3190477731e+01,1.8456977545e-05,1.6148417401e-03,2.8840804127e-14,3.8924025254e+00,0.0000000000e+00,0.0000000000e+00,0.0000000000e+00,0.0000000000e+00,0.0000000000e+00
9.8481266162e+04,3.8215825321e+01,2.0294709871e+03,5.8603226053e-02,3.2671007330e+01,1.0039717341e-04,2.1013492684e-03,3.1763524027e-14,5.4841066161e+00,0.0000000000e+00,0.0000000000e+00,0.0000000000e+00,0.0000000000e+00,0.0000000000e+00
8.3445754491e+04,5.3839753520e+01,2.1178780225e+03,8.2567520514e-02,4.6026852561e+01,3.9686884509e-04,2.7773235665e-03,4.1846294034e-14,7.7269435593e+00,0.0000000000e+00,0.0000000000e+00,0.0000000000e+00,0.0000000000e+00,0.0000000000e+00
6.7816470099e+04,7.5851274562e+01,2.2037993145e+03,1.1618371994e-01,6.4841025653e+01,1.3547153944e-03,3.6965674398e-03,5.9896451246e-14,1.0887938727e+01,0.0000000000e+00,0.0000000000e+00,0.0000000000e+00,0.0000000000e+00,0.0000000000e+00
5.1580396297e+04,1.0686185349e+02,2.2901513131e+03,1.6324334051e-01,9.1341959525e+01,4.2300435291e-03,4.9396072738e-03,9.0177221018e-14,1.5344432779e+01,0.0000000000e+00,0.0000000000e+00,0.0000000000e+00,0.0000000000e+00,0.0000000000e+00
3.4711380157e+04,1.5055061102e+02,2.3796022052e+03,2.2890693207e-01,1.2866299906e+02,1.2574830314e-02,6.6120610535e-03,1.3964044958e-13,2.1631826103e+01,0.0000000000e+00,0.0000000000e+00,0.0000000000e+00,0.0000000000e+00,0.0000000000e+00
1.7153361000e+04,2.1210081743e+02,2.4769464369e+03,3.1994264586e-01,1.8120044554e+02,3.7487930517e-02,8.8388033759e-03,2.1606306076e-13,3.0516008834e+01,0.0000000000e+00,0.0000000000e+00,0.0000000000e+00,0.0000000000e+00,0.0000000000e+00
3.8788904689e+03,2.6936087256e+02,2.5617850758e+03,4.0202898531e-01,2.2998301224e+02,9.0350693609e-02,1.0739470126e-02,2.7462050330e-13,3.8839734960e+01,0.0000000000e+00,0.0000000000e+00,0.0000000000e+00,0.0000000000e+00,0.0000000000e+00
4.7768950480e+01,2.8844949995e+02,2.6289022209e+03,4.2456238074e-01,2.4604347335e+02,1.7300213837e-01,1.1095579051e-02,2.3641792067e-13,4.1742656257e+01,0.0000000000e+00,0.0000000000e+00,0.0000000000e+00,0.0000000000e+00,0.0000000000e+00
