z(m),p_tot(bar),T(K),p_H2O(bar),p_CO2(bar),p_O2(bar),p_H2(bar),p_CH4(bar),p_CO(bar),p_N2(bar),p_NH3(bar),p_S2(bar),p_SO2(bar),p_H2S(bar)
2.0318444837e+05,1.0322250352e-04,2.1952884577e+02,8.2435511070e-06,9.0973860682e-05,1.3458622679e-30,1.8502218359e-06,6.1975719142e-15,2.1548571564e-06,0.0000000000e+00,0.0000000000e+00,0.0000000000e+00,0.0000000000e+00,0.0000000000e+00
2.0092176108e+05,1.6092214802e-04,2.4136105758e+02,1.2850983202e-05,1.4182800652e-04,1.3371871247e-30,2.8850859644e-06,2.3556955424e-14,3.3587582124e-06,0.0000000000e+00,0.0000000000e+00,0.0000000000e+00,0.0000000000e+00,0.0000000000e+00
1.9922548855e+05,2.2098342565e-04,2.3955292345e+02,1.7647291829e-05,1.9476204764e-04,1.3379004103e-30,3.9619386546e-06,6.0993418545e-14,4.6126152905e-06,0.0000000000e+00,0.0000000000e+00,0.0000000000e+00,0.0000000000e+00,0.0000000000e+00
1.9760597847e+05,3.0346148750e-04,2.3723679480e+02,2.4234391142e-05,2.6745335677e-04,1.3391963756e-30,5.4400897900e-06,1.5783289864e-13,6.3337210822e-06,0.0000000000e+00,0.0000000000e+00,0.0000000000e+00,0.0000000000e+00,0.0000000000e+00
1.9606116749e+05,4.1672299235e-04,2.3955577451e+02,3.3278729449e-05,3.6727487073e-04,1.3379504907e-30,7.4711638130e-06,4.0899187862e-13,8.6981313110e-06,0.0000000000e+00,0.0000000000e+00,0.0000000000e+00,0.0000000000e+00,0.0000000000e+00
1.9449775458e+05,5.7225730285e-04,2.4332026107e+02,4.5699311502e-05,5.0435633601e-04,1.3362794040e-30,1.0259902523e-05,1.0597101998e-12,1.1943854590e-05,0.0000000000e+00,0.0000000000e+00,0.0000000000e+00,0.0000000000e+00,0.0000000000e+00
1.9291182194e+05,7.8584197819e-04,2.4671499382e+02,6.2754248404e-05,6.9259410072e-04,1.3344618564e-30,1.4090402385e-05,2.7464171753e-12,1.6401906487e-05,0.0000000000e+00,0.0000000000e+00,0.0000000000e+00,0.0000000000e+00,0.0000000000e+00
1.9130288362e+05,1.0791432658e-03,2.5071614996e+02,8.6176058118e-05,9.5109586971e-04,1.3325443462e-30,1.9349631174e-05,7.1162146413e-12,2.2521568511e-05,0.0000000000e+00,0.0000000000e+00,0.0000000000e+00,0.0000000000e+00,0.0000000000e+00
1.8966296772e+05,1.4819139477e-03,2.5607404930e+02,1.1833662958e-04,1.3060740429e-03,1.3294746285e-30,2.6574387635e-05,1.8450916193e-11,3.0926604073e-05,0.0000000000e+00,0.0000000000e+00,0.0000000000e+00,0.0000000000e+00,0.0000000000e+00
1.8791600339e+05,2.0350114928e-03,2.6309339072e+02,1.6250096777e-04,1.7935456896e-03,1.3253701225e-30,3.6495346830e-05,4.7847080839e-11,4.2463629432e-05,0.0000000000e+00,0.0000000000e+00,0.0000000000e+00,0.0000000000e+00,0.0000000000e+00
1.8603811744e+05,2.7945426806e-03,2.7235331129e+02,2.2313521397e-04,2.4629398427e-03,1.3186739808e-30,5.0131282015e-05,1.2426673725e-10,5.8314070033e-05,0.0000000000e+00,0.0000000000e+00,0.0000000000e+00,0.0000000000e+00,0.0000000000e+00
1.8408189550e+05,3.8375551301e-03,2.8607746468e+02,3.0640725552e-04,3.3822409053e-03,1.3082161423e-30,6.8853028854e-05,3.2293843716e-10,8.0048828892e-05,0.0000000000e+00,0.0000000000e+00,0.0000000000e+00,0.0000000000e+00,0.0000000000e+00
1.8200980889e+05,5.2698530885e-03,3.0659590312e+02,4.2072147605e-04,4.6446611629e-03,1.2878305439e-30,9.4597793490e-05,8.4263966810e-10,1.0987121980e-04,0.0000000000e+00,0.0000000000e+00,0.0000000000e+00,0.0000000000e+00,0.0000000000e+00
1.7979037307e+05,7.2367303224e-03,3.2906125434e+02,5.7764606726e-04,6.3783013040e-03,1.2580115848e-30,1.3000486737e-04,2.2071742249e-09,1.5077496181e-04,0.0000000000e+00,0.0000000000e+00,0.0000000000e+00,0.0000000000e+00,0.0000000000e+00
1.7741168325e+05,9.9377088660e-03,3.5263930436e+02,7.9304328948e-04,8.7591312755e-03,1.2162009639e-30,1.7872295500e-04,5.8104331951e-09,2.0684014454e-04,0.0000000000e+00,0.0000000000e+00,0.0000000000e+00,0.0000000000e+00,0.0000000000e+00
1.7486621287e+05,1.3646778739e-02,3.7736081877e+02,1.0886218037e-03,1.2028672885e-02,1.1577233534e-30,2.4582013745e-04,1.5411490936e-08,2.8362102317e-04,0.0000000000e+00,0.0000000000e+00,0.0000000000e+00,0.0000000000e+00,0.0000000000e+00
1.7214619977e+05,1.8740191775e-02,4.0327519540e+02,1.4941253860e-03,1.6519111344e-02,1.0771819519e-30,3.3834220558e-04,4.1327171520e-08,3.8861733682e-04,0.0000000000e+00,0.0000000000e+00,0.0000000000e+00,0.0000000000e+00,0.0000000000e+00
1.6924355977e+05,2.5734628991e-02,4.3044241405e+02,2.0501379627e-03,2.2686404402e-02,9.6888305838e-31,4.6616614858e-04,1.1263588425e-07,5.3190384816e-04,0.0000000000e+00,0.0000000000e+00,0.0000000000e+00,0.0000000000e+00,0.0000000000e+00
1.6614988889e+05,3.5339613236e-02,4.5891183796e+02,2.8119980459e-03,3.1157335286e-02,8.2971960862e-31,6.4317398558e-04,3.1419433477e-07,7.2678724855e-04,0.0000000000e+00,0.0000000000e+00,0.0000000000e+00,0.0000000000e+00,0.0000000000e+00
1.6285659269e+05,4.8529483915e-02,4.8870630178e+02,3.8549455214e-03,4.2794079548e-02,6.6362620456e-31,8.8894657105e-04,9.0466893306e-07,9.9053545931e-04,0.0000000000e+00,0.0000000000e+00,0.0000000000e+00,0.0000000000e+00,0.0000000000e+00
1.5935515257e+05,6.6642234970e-02,5.1981127018e+02,5.2813248198e-03,5.8783321704e-02,4.8698626143e-31,1.2305255742e-03,2.7051162002e-06,1.3446031050e-03,0.0000000000e+00,0.0000000000e+00,0.0000000000e+00,0.0000000000e+00,0.0000000000e+00
1.5563729743e+05,9.1515242355e-02,5.5222225178e+02,7.2305686774e-03,8.0758259029e-02,3.2777792354e-31,1.7033088556e-03,8.3587444657e-06,1.8147364496e-03,0.0000000000e+00,0.0000000000e+00,0.0000000000e+00,0.0000000000e+00,0.0000000000e+00
1.5169498466e+05,1.2567164932e-01,5.8596537439e+02,9.8974813355e-03,1.1097241892e-01,2.1521859887e-31,2.3452469893e-03,2.5628087277e-05,2.4306079159e-03,0.0000000000e+00,0.0000000000e+00,0.0000000000e+00,0.0000000000e+00,0.0000000000e+00
1.4752035806e+05,1.7257631666e-01,6.2107704647e+02,1.3567969761e-02,1.5251714526e-01,1.6940331135e-31,3.1815938640e-03,6.9893682951e-05,3.2402529027e-03,0.0000000000e+00,0.0000000000e+00,0.0000000000e+00,0.0000000000e+00,0.0000000000e+00
1.4310553450e+05,2.3698730168e-01,6.5758860427e+02,1.8683320908e-02,2.0952441787e-01,2.4499913660e-31,4.2343564800e-03,1.4215360189e-04,4.4031239518e-03,0.0000000000e+00,0.0000000000e+00,0.0000000000e+00,0.0000000000e+00,0.0000000000e+00
1.3844070372e+05,3.2543852045e-01,6.9554917407e+02,2.5946773166e-02,2.8737949763e-01,1.1578618395e-30,5.5587879181e-03,1.7620600740e-04,6.3772236492e-03,0.0000000000e+00,0.0000000000e+00,0.0000000000e+00,0.0000000000e+00,0.0000000000e+00
1.3351408912e+05,4.4690255487e-01,7.3502423826e+02,3.6445640869e-02,3.9343436395e-01,2.5778639595e-29,7.0598185354e-03,1.0842073680e-04,9.8546675079e-03,0.0000000000e+00,0.0000000000e+00,0.0000000000e+00,0.0000000000e+00,0.0000000000e+00
1.2831546094e+05,6.1370084056e-01,7.7607638275e+02,5.1579571100e-02,5.3839978800e-01,2.0249920151e-27,8.3724991213e-03,3.2887442768e-05,1.5313276838e-02,0.0000000000e+00,0.0000000000e+00,0.0000000000e+00,0.0000000000e+00,0.0000000000e+00
1.2283614115e+05,8.4275356585e-01,8.1877250729e+02,7.2948650559e-02,7.3713000299e-01,2.5366824946e-25,9.4487102668e-03,7.0787203985e-06,2.3220354395e-02,0.0000000000e+00,0.0000000000e+00,0.0000000000e+00,0.0000000000e+00,0.0000000000e+00
1.1706661050e+05,1.1572960730e+00,8.6318393622e+02,1.0263766777e-01,1.0097623421e+00,2.7163837360e-23,1.0527657557e-02,1.5463057448e-06,3.4367209956e-02,0.0000000000e+00,0.0000000000e+00,0.0000000000e+00,0.0000000000e+00,0.0000000000e+00
1.1099682989e+05,1.5892358748e+00,9.0936950926e+02,1.4361693667e-01,1.3839643480e+00,1.9819619657e-21,1.1788585606e-02,3.9627556476e-07,4.9868138666e-02,0.0000000000e+00,0.0000000000e+00,0.0000000000e+00,0.0000000000e+00,0.0000000000e+00
1.0461642654e+05,2.1823893858e+00,9.5738783583e+02,2.0006847694e-01,1.8976480608e+00,9.8237579557e-20,1.3339821777e-02,1.2148325673e-07,7.1333369354e-02,0.0000000000e+00,0.0000000000e+00,0.0000000000e+00,0.0000000000e+00,0.0000000000e+00
9.7913873724e+04,2.9969267033e+00,1.0073078423e+03,2.7779694825e-01,2.6028423216e+00,3.5210004634e-18,1.5261908369e-02,4.3580077667e-08,1.0102419809e-01,0.0000000000e+00,0.0000000000e+00,0.0000000000e+00,0.0000000000e+00,0.0000000000e+00
9.0877498295e+04,4.1154753243e+00,1.0592040299e+03,3.8479766339e-01,3.5709745607e+00,9.6976372031e-17,1.7639497764e-02,1.7829778739e-08,1.4205454053e-01,0.0000000000e+00,0.0000000000e+00,0.0000000000e+00,0.0000000000e+00,0.0000000000e+00
8.3495801186e+04,5.6515019623e+00,1.1131557716e+03,5.3206253212e-01,4.9001765627e+00,2.1450028275e-15,2.0579058598e-02,8.1598786073e-09,1.9868596919e-01,0.0000000000e+00,0.0000000000e+00,0.0000000000e+00,0.0000000000e+00,0.0000000000e+00
7.5756435197e+04,7.7608227272e+00,1.1692479538e+03,7.3467241580e-01,6.7250376649e+00,3.9211590829e-14,2.4232315300e-02,4.1316497478e-09,2.7688713731e-01,0.0000000000e+00,0.0000000000e+00,0.0000000000e+00,0.0000000000e+00,0.0000000000e+00
6.7646237179e+04,1.0657409270e+01,1.2275724601e+03,1.0133696860e+00,9.2305486719e+00,6.0499137124e-13,2.8782434053e-02,2.2920043551e-09,3.8470998215e-01,0.0000000000e+00,0.0000000000e+00,0.0000000000e+00,0.0000000000e+00,0.0000000000e+00
5.9152565830e+04,1.4635094286e+01,1.2882240811e+03,1.3966365442e+00,1.2670637299e+01,7.9941378067e-12,3.4479869333e-02,1.3850672510e-09,5.3334301477e-01,0.0000000000e+00,0.0000000000e+00,0.0000000000e+00,0.0000000000e+00,0.0000000000e+00
5.0261620907e+04,2.0097378203e+01,1.3513075962e+03,1.9236075449e+00,1.7394012106e+01,9.1555773362e-11,4.1647056436e-02,9.0703967179e-10,7.3812905487e-01,0.0000000000e+00,0.0000000000e+00,0.0000000000e+00,0.0000000000e+00,0.0000000000e+00
4.0956982152e+04,2.7598360676e+01,1.4169342763e+03,2.6480428467e+00,2.3879463316e+01,9.1834820961e-10,5.0703339838e-02,6.4063491668e-10,1.0201415628e+00,0.0000000000e+00,0.0000000000e+00,0.0000000000e+00,0.0000000000e+00,0.0000000000e+00
3.1221499046e+04,3.7898949022e+01,1.4852196753e+03,3.6438061324e+00,3.2784628637e+01,8.1406290595e-09,6.2196021356e-02,4.8589439951e-10,1.4083031380e+00,0.0000000000e+00,0.0000000000e+00,0.0000000000e+00,0.0000000000e+00,0.0000000000e+00
2.1036315916e+04,5.2044045436e+01,1.5562908083e+03,5.0123335434e+00,4.5012211726e+01,6.4285277948e-08,7.6852504385e-02,3.9435144931e-10,1.9425903030e+00,0.0000000000e+00,0.0000000000e+00,0.0000000000e+00,0.0000000000e+00,0.0000000000e+00
1.0378575288e+04,7.1468542934e+01,1.6303180999e+03,6.8930032387e+00,6.1802351506e+01,4.5625174804e-07,9.5604711969e-02,3.4079994798e-10,2.6774703942e+00,0.0000000000e+00,0.0000000000e+00,0.0000000000e+00,0.0000000000e+00,0.0000000000e+00
2.3437469016e+03,8.9157222983e+01,1.6842586740e+03,8.6065710588e+00,7.7091025141e+01,1.7053563402e-06,1.1169164466e-01,3.1689590329e-10,3.3477125665e+00,0.0000000000e+00,0.0000000000e+00,0.0000000000e+00,0.0000000000e+00,0.0000000000e+00
2.9512988357e+01,9.4989389969e+01,1.7467308790e+03,9.1774783245e+00,8.2125550124e+01,7.0849095755e-06,1.1095049760e-01,1.7344041008e-10,3.5747332965e+00,0.0000000000e+00,0.0000000000e+00,0.0000000000e+00,0.0000000000e+00,0.0000000000e+00
