z(m),p_tot(bar),T(K),p_H2O(bar),p_CO2(bar),p_O2(bar),p_H2(bar),p_CH4(bar),p_CO(bar),p_N2(bar),p_NH3(bar),p_S2(bar),p_SO2(bar),p_H2S(bar)
2.2579352917e+05,1.0338801874e-04,2.1532981405e+02,2.1093182152e-06,9.6492384287e-05,4.4767135699e-31,8.2125220707e-07,3.8958476655e-15,3.9650732094e-06,0.0000000000e+00,0.0000000000e+00,0.0000000000e+00,0.0000000000e+00,0.0000000000e+00
2.2322866785e+05,1.6483642738e-04,2.4182910264e+02,3.3625286096e-06,1.5384261304e-04,4.4410515343e-31,1.3098154648e-06,1.5856355366e-14,6.3213566366e-06,0.0000000000e+00,0.0000000000e+00,0.0000000000e+00,0.0000000000e+00,0.0000000000e+00
2.2135393890e+05,2.3001455686e-04,2.4280380293e+02,4.6921186874e-06,2.1467395738e-04,4.4397050161e-31,1.8277246886e-06,4.3087719073e-14,8.8206425929e-06,0.0000000000e+00,0.0000000000e+00,0.0000000000e+00,0.0000000000e+00,0.0000000000e+00
2.1947342122e+05,3.2096483289e-04,2.4359733429e+02,6.5474266240e-06,2.9955891900e-04,4.4384631188e-31,2.5504429407e-06,1.1708866957e-13,1.2308282656e-05,0.0000000000e+00,0.0000000000e+00,0.0000000000e+00,0.0000000000e+00,0.0000000000e+00
2.1760614694e+05,4.4787784460e-04,2.4417922892e+02,9.1362775667e-06,4.1800715769e-04,4.4373823137e-31,3.5589773726e-06,3.1819148804e-13,1.7175265782e-05,0.0000000000e+00,0.0000000000e+00,0.0000000000e+00,0.0000000000e+00,0.0000000000e+00
2.1575492228e+05,6.2497365171e-04,2.4518794631e+02,1.2748858479e-05,5.8329302461e-04,4.4358405212e-31,4.9662584467e-06,8.6468603302e-13,2.3966099398e-05,0.0000000000e+00,0.0000000000e+00,0.0000000000e+00,0.0000000000e+00,0.0000000000e+00
2.1389305030e+05,8.7209508138e-04,2.4745465111e+02,1.7789411851e-05,8.1393117441e-04,4.4316092475e-31,6.9304142451e-06,2.3508365230e-12,3.3443531426e-05,0.0000000000e+00,0.0000000000e+00,0.0000000000e+00,0.0000000000e+00,0.0000000000e+00
2.1201117802e+05,1.2169310320e-03,2.5087835270e+02,2.4823031901e-05,1.1357707258e-03,4.4255432571e-31,9.6713095975e-06,6.3920370926e-12,4.6666732502e-05,0.0000000000e+00,0.0000000000e+00,0.0000000000e+00,0.0000000000e+00,0.0000000000e+00
2.1010059203e+05,1.6981188959e-03,2.5545427042e+02,3.4637261894e-05,1.5848678692e-03,4.4169045177e-31,1.3496496173e-05,1.7385483383e-11,6.5117683998e-05,0.0000000000e+00,0.0000000000e+00,0.0000000000e+00,0.0000000000e+00,0.0000000000e+00
2.0813118920e+05,2.3695737134e-03,2.6192917967e+02,4.8331025768e-05,2.2115436821e-03,4.4038076067e-31,1.8835273783e-05,4.7310219784e-11,9.0861823249e-05,0.0000000000e+00,0.0000000000e+00,0.0000000000e+00,0.0000000000e+00,0.0000000000e+00
2.0608363380e+05,3.3065291229e-03,2.7063318541e+02,6.7436438749e-05,3.0860180488e-03,4.3839291651e-31,2.6288048741e-05,1.2885661969e-10,1.2678549537e-04,0.0000000000e+00,0.0000000000e+00,0.0000000000e+00,0.0000000000e+00,0.0000000000e+00
2.0396003948e+05,4.6139669675e-03,2.8231759526e+02,9.4090984577e-05,4.3062819732e-03,4.3533868573e-31,3.6692977779e-05,3.5139876636e-10,1.7690422734e-04,0.0000000000e+00,0.0000000000e+00,0.0000000000e+00,0.0000000000e+00,0.0000000000e+00
2.0173220235e+05,6.4383800612e-03,2.9852132229e+02,1.3126778492e-04,6.0090420037e-03,4.3015645929e-31,5.1228385378e-05,9.6091437297e-10,2.4683594908e-04,0.0000000000e+00,0.0000000000e+00,0.0000000000e+00,0.0000000000e+00,0.0000000000e+00
1.9936123690e+05,8.9841860821e-03,3.2085362217e+02,1.8310548542e-04,8.3851460789e-03,4.2095565598e-31,7.1549032343e-05,2.6408684463e-09,3.4437204955e-04,0.0000000000e+00,0.0000000000e+00,0.0000000000e+00,0.0000000000e+00,0.0000000000e+00
1.9681530301e+05,1.2536631698e-02,3.4502220415e+02,2.5536996287e-04,1.1700903937e-02,4.0757949034e-31,9.9971192246e-05,7.2979802668e-09,4.8038212423e-04,0.0000000000e+00,0.0000000000e+00,0.0000000000e+00,0.0000000000e+00,0.0000000000e+00
1.9408075615e+05,1.7493753234e-02,3.7038668474e+02,3.5605825754e-04,1.6327910884e-02,3.8862522248e-31,1.3976927672e-04,2.0330134951e-08,6.7000675889e-04,0.0000000000e+00,0.0000000000e+00,0.0000000000e+00,0.0000000000e+00,0.0000000000e+00
1.9115022289e+05,2.4410974940e-02,3.9700403862e+02,4.9623643663e-04,2.2784803709e-02,3.6208533364e-31,1.9558983862e-04,5.7322652940e-08,9.3427622263e-04,0.0000000000e+00,0.0000000000e+00,0.0000000000e+00,0.0000000000e+00,0.0000000000e+00
1.8801614246e+05,3.4063341900e-02,4.2493805722e+02,6.9116441068e-04,3.1795765369e-02,3.2588536890e-31,2.7405433880e-04,1.6452916535e-07,1.3022236993e-03,0.0000000000e+00,0.0000000000e+00,0.0000000000e+00,0.0000000000e+00,0.0000000000e+00
1.8466813824e+05,4.7532360516e-02,4.5423616276e+02,9.6167512367e-04,4.4371461135e-02,2.7863654986e-31,3.8470249682e-04,4.8481897378e-07,1.8139694601e-03,0.0000000000e+00,0.0000000000e+00,0.0000000000e+00,0.0000000000e+00,0.0000000000e+00
1.8109553349e+05,6.6327176672e-02,4.8490840800e+02,1.3360188699e-03,6.1924947847e-02,2.2163540088e-31,5.4117284979e-04,1.4804545826e-06,2.5235974101e-03,0.0000000000e+00,0.0000000000e+00,0.0000000000e+00,0.0000000000e+00,0.0000000000e+00
1.7728759778e+05,9.2553669069e-02,5.1695132529e+02,1.8515220650e-03,8.6431014970e-02,1.6047210133e-31,7.6275992570e-04,4.7254521840e-06,3.5035849396e-03,0.0000000000e+00,0.0000000000e+00,0.0000000000e+00,0.0000000000e+00,0.0000000000e+00
1.7323430306e+05,1.2915040392e-01,5.5038828084e+02,2.5564379170e-03,1.2066083619e-01,1.0541849222e-31,1.0739525267e-03,1.5658100264e-05,4.8436782896e-03,0.0000000000e+00,0.0000000000e+00,0.0000000000e+00,0.0000000000e+00,0.0000000000e+00
1.6892883695e+05,1.8021788872e-01,5.8525035242e+02,3.5115403391e-03,1.6851206299e-01,6.6996719958e-32,1.4972790229e-03,5.1211273224e-05,6.6456607187e-03,0.0000000000e+00,0.0000000000e+00,0.0000000000e+00,0.0000000000e+00,0.0000000000e+00
1.6436457965e+05,2.5147801655e-01,6.2157403584e+02,4.8092324093e-03,2.3544751945e-01,5.1826004377e-32,2.0379581623e-03,1.4462375499e-04,9.0388579122e-03,0.0000000000e+00,0.0000000000e+00,0.0000000000e+00,0.0000000000e+00,0.0000000000e+00
1.5953104237e+05,3.5091517972e-01,6.5939371837e+02,6.6769424674e-03,3.2883194563e-01,7.9474810359e-32,2.7091722808e-03,2.8853163527e-04,1.2408757047e-02,0.0000000000e+00,0.0000000000e+00,0.0000000000e+00,0.0000000000e+00,0.0000000000e+00
1.5441466027e+05,4.8967088672e-01,6.9877018860e+02,9.6698920536e-03,4.5827560604e-01,4.6695903293e-31,3.5791508581e-03,3.2462726942e-04,1.7821451890e-02,0.0000000000e+00,0.0000000000e+00,0.0000000000e+00,0.0000000000e+00,0.0000000000e+00
1.4899957019e+05,6.8329212061e-01,7.3978026040e+02,1.4538567947e-02,6.3758243323e-01,1.5349396145e-29,4.5216977890e-03,1.5844512176e-04,2.6491478998e-02,0.0000000000e+00,0.0000000000e+00,0.0000000000e+00,0.0000000000e+00,0.0000000000e+00
1.4327363912e+05,9.5347331186e-01,7.8248215738e+02,2.1784858896e-02,8.8764821803e-01,1.8334371973e-27,5.1743886497e-03,3.4624742074e-05,3.8830619530e-02,0.0000000000e+00,0.0000000000e+00,0.0000000000e+00,0.0000000000e+00,0.0000000000e+00
1.3723093115e+05,1.3304871065e+00,8.2694526503e+02,3.2082805288e-02,1.2368295406e+00,3.1173784716e-25,5.6193629553e-03,5.6657599294e-06,5.5951335588e-02,0.0000000000e+00,0.0000000000e+00,0.0000000000e+00,0.0000000000e+00,0.0000000000e+00
1.3086341083e+05,1.8565762864e+00,8.7325065643e+02,4.6534776456e-02,1.7241007599e+00,4.0394354224e-23,6.0886262154e-03,1.0286864267e-06,7.9853985982e-02,0.0000000000e+00,0.0000000000e+00,0.0000000000e+00,0.0000000000e+00,0.0000000000e+00
1.2415739708e+05,2.5906868924e+00,9.2147374440e+02,6.6734806354e-02,2.4040272070e+00,3.3380450945e-21,6.6988194899e-03,2.3390267601e-07,1.1323048121e-01,0.0000000000e+00,0.0000000000e+00,0.0000000000e+00,0.0000000000e+00,0.0000000000e+00
1.1709847128e+05,3.6150728756e+00,9.7168931294e+02,9.4965999500e-02,3.3527482939e+00,1.8171767723e-19,7.5043833863e-03,6.6215795414e-08,1.5985221290e-01,0.0000000000e+00,0.0000000000e+00,0.0000000000e+00,0.0000000000e+00,0.0000000000e+00
1.0967130728e+05,5.0445123006e+00,1.0239797982e+03,1.3444305315e-01,4.6765349042e+00,7.0459225156e-18,8.5453946329e-03,2.2496591384e-08,2.2498818015e-01,0.0000000000e+00,0.0000000000e+00,0.0000000000e+00,0.0000000000e+00,0.0000000000e+00
1.0186223287e+05,7.0391677365e+00,1.0784334828e+03,1.8965672963e-01,6.5236342836e+00,2.0776884139e-16,9.8709470946e-03,8.8800988046e-09,3.1600365423e-01,0.0000000000e+00,0.0000000000e+00,0.0000000000e+00,0.0000000000e+00,0.0000000000e+00
9.3661639725e+04,9.8225317870e+00,1.1351450576e+03,2.6687551878e-01,9.1009616574e+00,4.8748236991e-15,1.1548159331e-02,3.9811612084e-09,4.4316429384e-01,0.0000000000e+00,0.0000000000e+00,0.0000000000e+00,0.0000000000e+00,0.0000000000e+00
8.5057297549e+04,1.3706468480e+01,1.1942189189e+03,3.7484505078e-01,1.2697110595e+01,9.3766142476e-14,1.3670013037e-02,1.9977021182e-09,6.2085454878e-01,0.0000000000e+00,0.0000000000e+00,0.0000000000e+00,0.0000000000e+00,0.0000000000e+00
7.6030612511e+04,1.9126156298e+01,1.2557591029e+03,5.2577953114e-01,1.7714985453e+01,1.5097226160e-12,1.6358832659e-02,1.1100682910e-09,8.6905624476e-01,0.0000000000e+00,0.0000000000e+00,0.0000000000e+00,0.0000000000e+00,0.0000000000e+00
6.6561424436e+04,2.6688848061e+01,1.3198802274e+03,7.3672662859e-01,2.4716621058e+01,2.0667010793e-11,1.9778858817e-02,6.7783202666e-10,1.2157468552e+00,0.0000000000e+00,0.0000000000e+00,0.0000000000e+00,0.0000000000e+00,0.0000000000e+00
5.6627351659e+04,3.7241911012e+01,1.3867101436e+03,1.0314880299e+00,3.4486316468e+01,2.4369053901e-10,2.4146711251e-02,4.5182084167e-10,1.6999709573e+00,0.0000000000e+00,0.0000000000e+00,0.0000000000e+00,0.0000000000e+00,0.0000000000e+00
4.6207056265e+04,5.1967770682e+01,1.4563774219e+03,1.4432951123e+00,4.8118644913e+01,2.5023076623e-09,2.9748137612e-02,3.2684339613e-10,2.3761046078e+00,0.0000000000e+00,0.0000000000e+00,0.0000000000e+00,0.0000000000e+00,0.0000000000e+00
3.5281173458e+04,7.2516396616e+01,1.5290124746e+03,2.0185315302e+00,6.7140729741e+01,2.2588341375e-08,3.6964996338e-02,2.5533475647e-10,3.3201756252e+00,0.0000000000e+00,0.0000000000e+00,0.0000000000e+00,0.0000000000e+00,0.0000000000e+00
2.3821782341e+04,1.0119017439e+02,1.6047546557e+03,2.8219436284e+00,9.3683585174e+01,1.8081662834e-07,4.6304790648e-02,2.1440900265e-10,4.6382137037e+00,0.0000000000e+00,0.0000000000e+00,0.0000000000e+00,0.0000000000e+00,0.0000000000e+00
1.1787899691e+04,1.4120187808e+02,1.6837830767e+03,3.9439016470e+00,1.3072089012e+02,1.2946234861e-06,5.8445638642e-02,1.9263895642e-10,6.4784520501e+00,0.0000000000e+00,0.0000000000e+00,0.0000000000e+00,0.0000000000e+00,0.0000000000e+00
2.6654335759e+03,1.7812861886e+02,1.7412238341e+03,4.9799503382e+00,1.6490185159e+02,4.8327284052e-06,6.9015813515e-02,1.8497209052e-10,8.1774614197e+00,0.0000000000e+00,0.0000000000e+00,0.0000000000e+00,0.0000000000e+00,0.0000000000e+00
3.2929616563e+01,1.9038812805e+02,1.7851393062e+03,5.3259861775e+00,1.7624748450e+02,1.2484015155e-05,7.0376354612e-02,1.3297066293e-10,8.7437436060e+00,0.0000000000e+00,0.0000000000e+00,0.0000000000e+00,0.0000000000e+00,0.0000000000e+00
