z(m),p_tot(bar),T(K),p_H2O(bar),p_CO2(bar),p_O2(bar),p_H2(bar),p_CH4(bar),p_CO(bar),p_N2(bar),p_NH3(bar),p_S2(bar),p_SO2(bar),p_H2S(bar)
3.7865864225e+05,1.0357112719e-04,1.6955617000e+02,1.0227557903e-04,3.9132840299e-08,4.5296908793e-28,1.2563709226e-06,3.6710950662e-21,5.0763459851e-11,0.0000000000e+00,0.0000000000e+00,0.0000000000e+00,0.0000000000e+00,0.0000000000e+00
3.7859495572e+05,1.6927021358e-04,1.5492795714e+02,1.6715285020e-04,6.3956273056e-08,4.5361950667e-28,2.0533345466e-06,1.6017339490e-20,8.2973761977e-11,0.0000000000e+00,0.0000000000e+00,0.0000000000e+00,0.0000000000e+00,0.0000000000e+00
3.7855528298e+05,2.4041832678e-04,1.5556435550e+02,2.3741098749e-04,9.0838546863e-08,4.5359764040e-28,2.9163976675e-06,4.5894347536e-20,1.1784908231e-10,0.0000000000e+00,0.0000000000e+00,0.0000000000e+00,0.0000000000e+00,0.0000000000e+00
3.7851538699e+05,3.4147160703e-04,1.5667193791e+02,3.3720021477e-04,1.2902005154e-07,4.5354837208e-28,4.1422258108e-06,1.3150365633e-19,1.6738233560e-10,0.0000000000e+00,0.0000000000e+00,0.0000000000e+00,0.0000000000e+00,0.0000000000e+00
3.7847509653e+05,4.8499987488e-04,1.5885192204e+02,4.7893311947e-04,1.8325011147e-07,4.5346083723e-28,5.8832973511e-06,3.7681659775e-19,2.3773341810e-10,0.0000000000e+00,0.0000000000e+00,0.0000000000e+00,0.0000000000e+00,0.0000000000e+00
3.7843404539e+05,6.8885633179e-04,1.6267612261e+02,6.8023958136e-04,2.6027430276e-07,4.5329139341e-28,8.3561807884e-06,1.0798195363e-18,3.3764850382e-10,0.0000000000e+00,0.0000000000e+00,0.0000000000e+00,0.0000000000e+00,0.0000000000e+00
3.7839173238e+05,9.7839828509e-04,1.6895571285e+02,9.6615971887e-04,3.6967352437e-07,4.5299627577e-28,1.1868473284e-05,3.0946896995e-18,4.7954591933e-10,0.0000000000e+00,0.0000000000e+00,0.0000000000e+00,0.0000000000e+00,0.0000000000e+00
3.7834750556e+05,1.3896412940e-03,1.7773808815e+02,1.3722585805e-03,5.2505575107e-07,4.5253772262e-28,1.6857062071e-05,8.8703551466e-18,6.8105711895e-10,0.0000000000e+00,0.0000000000e+00,0.0000000000e+00,0.0000000000e+00,0.0000000000e+00
3.7830072179e+05,1.9737390747e-03,1.8913820977e+02,1.9490500120e-03,7.4574871637e-07,4.5183961189e-28,2.3942468030e-05,2.5430251128e-17,9.6720654053e-10,0.0000000000e+00,0.0000000000e+00,0.0000000000e+00,0.0000000000e+00,0.0000000000e+00
3.7825074937e+05,2.8033464117e-03,2.0301451808e+02,2.7682799752e-03,1.0592040688e-06,4.5081633231e-28,3.4006031072e-05,7.2925010359e-17,1.3735068918e-09,0.0000000000e+00,0.0000000000e+00,0.0000000000e+00,0.0000000000e+00,0.0000000000e+00
3.7819713991e+05,3.9816565445e-03,2.1759270727e+02,3.9318508884e-03,1.5044120224e-06,4.4949143925e-28,4.8299538304e-05,2.0917577221e-16,1.9503834003e-09,0.0000000000e+00,0.0000000000e+00,0.0000000000e+00,0.0000000000e+00,0.0000000000e+00
3.7813997039e+05,5.6552371738e-03,2.3085487931e+02,5.5844970691e-03,2.1367512437e-06,4.4801378255e-28,6.8600931338e-05,6.0007043622e-16,2.7694753182e-09,0.0000000000e+00,0.0000000000e+00,0.0000000000e+00,0.0000000000e+00,0.0000000000e+00
3.7807952503e+05,8.0322617319e-03,2.4295431004e+02,7.9317879544e-03,3.0348773813e-06,4.4640074021e-28,9.7435461063e-05,1.7216456609e-15,3.9324622710e-09,0.0000000000e+00,0.0000000000e+00,0.0000000000e+00,0.0000000000e+00,0.0000000000e+00
3.7801622808e+05,1.1408403670e-02,2.5284682464e+02,1.1265698482e-02,4.3105067198e-06,4.4485258958e-28,1.3838979851e-04,4.9392799305e-15,5.5838794342e-09,0.0000000000e+00,0.0000000000e+00,0.0000000000e+00,0.0000000000e+00,0.0000000000e+00
3.7795060389e+05,1.6203614704e-02,2.6089877239e+02,1.6000927283e-02,6.1223124918e-06,4.4342185040e-28,1.9655817388e-04,1.4169127663e-14,7.9289543370e-09,0.0000000000e+00,0.0000000000e+00,0.0000000000e+00,0.0000000000e+00,0.0000000000e+00
3.7788289262e+05,2.3014361786e-02,2.6889871343e+02,2.2726480237e-02,8.6956624783e-06,4.4183555621e-28,2.7917603836e-04,4.0651916699e-14,1.1258583437e-08,0.0000000000e+00,0.0000000000e+00,0.0000000000e+00,0.0000000000e+00,0.0000000000e+00
3.7781301616e+05,3.2687820471e-02,2.7785210584e+02,3.2278935765e-02,1.2350652321e-05,4.3983005096e-28,3.9652006738e-04,1.1667402942e-13,1.5985251024e-08,0.0000000000e+00,0.0000000000e+00,0.0000000000e+00,0.0000000000e+00,0.0000000000e+00
3.7774064552e+05,4.6427253429e-02,2.8804601152e+02,4.5846505182e-02,1.7541921981e-05,4.3723149684e-28,5.6318645516e-04,3.3503387293e-13,2.2693912885e-08,0.0000000000e+00,0.0000000000e+00,0.0000000000e+00,0.0000000000e+00,0.0000000000e+00
3.7766556573e+05,6.5941681944e-02,2.9853723133e+02,6.5116831991e-02,2.4915206985e-05,4.3414450639e-28,7.9990650229e-04,9.6247597336e-13,3.2215191739e-08,0.0000000000e+00,0.0000000000e+00,0.0000000000e+00,0.0000000000e+00,0.0000000000e+00
3.7758762266e+05,9.3658467743e-02,3.0958482956e+02,9.2486914552e-02,3.5387663094e-05,4.3038714978e-28,1.1361253347e-03,2.7666205557e-12,4.5725512509e-08,0.0000000000e+00,0.0000000000e+00,0.0000000000e+00,0.0000000000e+00,0.0000000000e+00
3.7750640556e+05,1.3302524778e-01,3.2220472361e+02,1.3136126402e-01,5.0261955484e-05,4.2536526822e-28,1.6136645117e-03,7.9615714841e-12,6.4886613720e-08,0.0000000000e+00,0.0000000000e+00,0.0000000000e+00,0.0000000000e+00,0.0000000000e+00
3.7430844801e+05,1.8893877910e-01,3.3819981476e+02,1.8657538482e-01,7.1388312829e-05,4.1770187995e-28,2.2919241174e-03,2.2965992388e-11,9.2031658995e-08,0.0000000000e+00,0.0000000000e+00,0.0000000000e+00,0.0000000000e+00,0.0000000000e+00
3.6713230747e+05,2.6835403687e-01,3.6800566319e+02,2.6499725342e-01,1.0139487270e-04,3.9867780833e-28,3.2552716036e-03,6.6949266658e-11,1.3024866720e-07,0.0000000000e+00,0.0000000000e+00,0.0000000000e+00,0.0000000000e+00,0.0000000000e+00
3.5933818099e+05,3.8114933021e-01,4.0088733507e+02,3.7638161291e-01,1.4401444322e-04,3.6865471676e-28,4.6235359737e-03,1.9747061377e-10,1.8388862854e-07,0.0000000000e+00,0.0000000000e+00,0.0000000000e+00,0.0000000000e+00,0.0000000000e+00
3.5087252950e+05,5.4135504579e-01,4.3639309243e+02,5.3458334628e-01,2.0454927758e-04,3.2340679738e-28,6.5669134091e-03,5.9391947473e-10,2.5857284645e-07,0.0000000000e+00,0.0000000000e+00,0.0000000000e+00,0.0000000000e+00,0.0000000000e+00
3.4168686721e+05,7.6889886030e-01,4.7463071168e+02,7.5928085867e-01,2.9053107949e-04,2.5996702950e-28,9.3271372885e-03,1.8450357454e-09,3.6115852385e-07,0.0000000000e+00,0.0000000000e+00,0.0000000000e+00,0.0000000000e+00,0.0000000000e+00
3.3173152358e+05,1.0920845053e+00,5.1571861333e+02,1.0784237770e+00,4.1265815094e-04,1.8277130380e-28,1.3247481520e-02,6.0227963357e-09,4.9927449909e-07,0.0000000000e+00,0.0000000000e+00,0.0000000000e+00,0.0000000000e+00,0.0000000000e+00
3.2095564078e+05,1.5511124132e+00,5.5977104811e+02,1.5317097934e+00,5.8612271044e-04,1.0977341509e-28,1.8815678345e-02,2.0838598388e-08,6.8188503917e-07,0.0000000000e+00,0.0000000000e+00,0.0000000000e+00,0.0000000000e+00,0.0000000000e+00
3.0930772865e+05,2.2030801707e+00,6.0688896965e+02,2.1755223218e+00,8.3247823407e-04,6.5909643055e-29,2.6724204224e-02,7.2097686218e-08,9.3118565856e-07,0.0000000000e+00,0.0000000000e+00,0.0000000000e+00,0.0000000000e+00,0.0000000000e+00
2.9676929202e+05,3.1290847765e+00,6.5716654627e+02,3.0899441097e+00,1.1822771020e-03,8.2674442104e-29,3.7956623193e-02,1.8995452729e-07,1.3457291122e-06,0.0000000000e+00,0.0000000000e+00,0.0000000000e+00,0.0000000000e+00,0.0000000000e+00
2.8329267834e+05,4.4443101383e+00,7.1068421055e+02,4.3887179631e+00,1.6788742222e-03,9.1622724133e-28,5.3910450818e-02,2.2335554593e-07,2.2985589310e-06,0.0000000000e+00,0.0000000000e+00,0.0000000000e+00,0.0000000000e+00,0.0000000000e+00
2.6879702027e+05,6.3123545753e+00,7.6750663913e+02,6.2333964043e+00,2.3832275674e-03,1.4686476665e-25,7.6569575136e-02,9.6797684877e-08,4.8005675068e-06,0.0000000000e+00,0.0000000000e+00,0.0000000000e+00,0.0000000000e+00,0.0000000000e+00
2.5323961201e+05,8.9655804938e+00,8.2768448064e+02,8.8534379250e+00,3.3810957942e-03,6.8152050867e-23,1.0874995953e-01,2.7761708815e-08,1.0784405901e-05,0.0000000000e+00,0.0000000000e+00,0.0000000000e+00,0.0000000000e+00,0.0000000000e+00
2.3655950406e+05,1.2734017494e+01,8.9125430968e+02,1.2574747466e+01,4.7943148224e-03,2.0865662461e-20,1.5445297577e-01,9.1345801621e-09,2.3280184795e-05,0.0000000000e+00,0.0000000000e+00,0.0000000000e+00,0.0000000000e+00,0.0000000000e+00
2.1871652914e+05,1.8086414109e+01,9.5824455168e+02,1.7860213483e+01,6.7953007381e-03,3.0686924328e-18,2.1935898624e-01,3.9035098410e-09,4.7247890884e-05,0.0000000000e+00,0.0000000000e+00,0.0000000000e+00,0.0000000000e+00,0.0000000000e+00
1.9963919670e+05,2.5688544521e+01,1.0286828622e+03,2.5367290776e+01,9.6274272884e-03,2.4759385151e-16,3.1153652433e-01,2.0699898042e-09,9.1203332993e-05,0.0000000000e+00,0.0000000000e+00,0.0000000000e+00,0.0000000000e+00,0.0000000000e+00
1.7924237818e+05,3.6486022914e+01,1.1025998295e+03,3.6029778842e+01,1.3634152332e-02,1.2687792340e-14,4.4244253133e-01,1.2926341015e-09,1.6944097067e-04,0.0000000000e+00,0.0000000000e+00,0.0000000000e+00,0.0000000000e+00,0.0000000000e+00
1.5752071830e+05,5.1821926577e+01,1.1800354116e+03,5.1173977223e+01,1.9300326209e-02,4.5226812521e-13,6.2834660162e-01,9.2034337836e-10,3.0523151030e-04,0.0000000000e+00,0.0000000000e+00,0.0000000000e+00,0.0000000000e+00,0.0000000000e+00
1.3445871372e+05,7.3603858676e+01,1.2610458220e+03,7.2683662777e+01,2.7310593354e-02,1.1846132948e-11,8.9235284100e-01,7.3305301311e-10,5.3562555518e-04,0.0000000000e+00,0.0000000000e+00,0.0000000000e+00,0.0000000000e+00,0.0000000000e+00
1.1001651447e+05,1.0454123129e+02,1.3457067377e+03,1.0323440924e+02,3.8631959733e-02,2.3669898279e-10,1.2672715076e+00,6.4495385724e-10,9.1865624305e-04,0.0000000000e+00,0.0000000000e+00,0.0000000000e+00,0.0000000000e+00,0.0000000000e+00
8.4173343811e+04,1.4848228388e+02,1.4341141313e+03,1.4662638878e+02,5.4630562730e-02,3.7160228172e-09,1.7996990294e+00,6.2064602323e-10,1.5440702571e-03,0.0000000000e+00,0.0000000000e+00,0.0000000000e+00,0.0000000000e+00,0.0000000000e+00
5.6881659199e+04,2.1089275835e+02,1.5263846356e+03,2.0825702475e+02,7.7236915836e-02,4.6997586004e-08,2.5558209407e+00,6.4783437488e-10,2.5491706259e-03,0.0000000000e+00,0.0000000000e+00,0.0000000000e+00,0.0000000000e+00,0.0000000000e+00
2.8113186804e+04,2.9953577195e+02,1.6226567421e+03,2.9579219056e+02,1.0917974673e-01,4.8945683318e-07,3.6296868680e+00,7.2813872159e-10,4.1421644506e-03,0.0000000000e+00,0.0000000000e+00,0.0000000000e+00,0.0000000000e+00,0.0000000000e+00
6.3133699822e+03,3.8256056584e+02,1.6771845357e+03,3.7777899544e+02,1.3907148036e-01,1.6398491151e-06,4.6355670439e+00,9.3499517464e-10,5.6606894992e-03,0.0000000000e+00,0.0000000000e+00,0.0000000000e+00,0.0000000000e+00,0.0000000000e+00
7.5927223036e+01,4.1033528978e+02,1.6895993739e+03,4.0520643798e+02,1.4907881112e-01,2.1363436229e-06,4.9720863299e+00,1.0378058734e-09,6.1611944580e-03,0.0000000000e+00,0.0000000000e+00,0.0000000000e+00,0.0000000000e+00,0.0000000000e+00
