z(m),p_tot(bar),T(K),p_H2O(bar),p_CO2(bar),p_O2(bar),p_H2(bar),p_CH4(bar),p_CO(bar),p_N2(bar),p_NH3(bar),p_S2(bar),p_SO2(bar),p_H2S(bar)
6.8811750117e+05,1.0351291335e-04,4.0395996508e+02,2.3147318526e-05,4.4007935281e-05,3.6357701670e-05,9.0129323201e-19,2.3116694584e-65,1.7798922738e-19,0.0000000000e+00,0.0000000000e+00,0.0000000000e+00,0.0000000000e+00,0.0000000000e+00
6.8087985977e+05,1.6784869855e-04,4.3654906860e+02,3.7533938175e-05,7.1359933980e-05,5.8954894711e-05,1.0795220851e-18,3.0701602954e-65,2.1119198954e-19,0.0000000000e+00,0.0000000000e+00,0.0000000000e+00,0.0000000000e+00,0.0000000000e+00
6.7578285192e+05,2.3706273852e-04,4.4411599600e+02,5.3011421889e-05,1.0078589537e-04,8.3265517760e-05,1.2599978127e-18,4.0885581458e-65,2.4581768802e-19,0.0000000000e+00,0.0000000000e+00,0.0000000000e+00,0.0000000000e+00,0.0000000000e+00
6.7061981146e+05,3.3481785966e-04,4.4929805076e+02,7.4871196234e-05,1.4234593755e-04,1.1760086218e-04,1.4776219643e-18,5.5294079652e-65,2.8768653555e-19,0.0000000000e+00,0.0000000000e+00,0.0000000000e+00,0.0000000000e+00,0.0000000000e+00
6.6540033453e+05,4.7288325380e-04,4.5565418710e+02,1.0574506070e-04,2.0104366649e-04,1.6609471912e-04,1.7256786930e-18,7.3778445058e-65,3.3508350516e-19,0.0000000000e+00,0.0000000000e+00,0.0000000000e+00,0.0000000000e+00,0.0000000000e+00
6.6010257003e+05,6.6788125326e-04,4.6413769220e+02,1.4935006284e-04,2.8394597368e-04,2.3458548866e-04,1.9995840569e-18,9.5949458654e-65,3.8676303370e-19,0.0000000000e+00,0.0000000000e+00,0.0000000000e+00,0.0000000000e+00,0.0000000000e+00
6.5470140505e+05,9.4328857043e-04,4.7523900828e+02,2.1093601085e-04,4.0103385189e-04,3.3131909178e-04,2.2903614080e-18,1.2017293684e-64,4.4050523945e-19,0.0000000000e+00,0.0000000000e+00,0.0000000000e+00,0.0000000000e+00,0.0000000000e+00
6.4917050894e+05,1.3322627679e-03,4.8895816062e+02,2.9791752226e-04,5.6640405310e-04,4.6794173503e-04,2.5845075937e-18,1.4335484116e-64,4.9313886000e-19,0.0000000000e+00,0.0000000000e+00,0.0000000000e+00,0.0000000000e+00,0.0000000000e+00
6.4347489658e+05,1.8816342511e-03,5.0583078917e+02,4.2076670415e-04,7.9996626187e-04,6.6090205129e-04,2.8531059283e-18,1.5919779135e-64,5.3825474780e-19,0.0000000000e+00,0.0000000000e+00,0.0000000000e+00,0.0000000000e+00,0.0000000000e+00
6.3756868644e+05,2.6575443974e-03,5.2757431278e+02,5.9427393856e-04,1.1298401144e-03,9.3343142681e-04,3.0330310203e-18,1.5633435700e-64,5.6247774836e-19,0.0000000000e+00,0.0000000000e+00,0.0000000000e+00,0.0000000000e+00,0.0000000000e+00
6.3135525335e+05,3.7534086236e-03,5.6284275070e+02,8.3932856515e-04,1.5957406516e-03,1.3183409355e-03,2.9188297240e-18,1.1097531166e-64,5.2401145488e-19,0.0000000000e+00,0.0000000000e+00,0.0000000000e+00,0.0000000000e+00,0.0000000000e+00
6.2471017995e+05,5.3011630997e-03,6.0647335880e+02,1.1854338455e-03,2.2537597974e-03,1.8619716160e-03,2.7437151006e-18,7.2962209364e-65,4.7510425747e-19,0.0000000000e+00,0.0000000000e+00,0.0000000000e+00,0.0000000000e+00,0.0000000000e+00
6.1756223066e+05,7.4871491564e-03,6.5367147489e+02,1.6742589974e-03,3.1831195247e-03,2.6297736840e-03,3.5269062963e-18,1.3310017907e-64,6.1814998446e-19,0.0000000000e+00,0.0000000000e+00,0.0000000000e+00,0.0000000000e+00,0.0000000000e+00
6.0987711251e+05,1.0574547781e-02,7.0426202320e+02,2.3646559448e-03,4.4957097558e-03,3.7141863867e-03,1.1625946956e-17,5.2291232066e-63,2.3834206177e-18,0.0000000000e+00,0.0000000000e+00,0.0000000000e+00,0.0000000000e+00,0.0000000000e+00
6.0162343416e+05,1.4935065193e-02,7.5822573325e+02,3.3397447705e-03,6.3495593077e-03,5.2457671900e-03,1.3600937842e-16,1.2674601132e-59,3.9507666427e-17,0.0000000000e+00,0.0000000000e+00,0.0000000000e+00,0.0000000000e+00,0.0000000000e+00
5.9276465820e+05,2.1093684284e-02,8.1551538449e+02,4.7169208988e-03,8.9678617083e-03,7.4089101791e-03,3.0365121142e-15,2.4836737174e-55,1.3703294457e-15,0.0000000000e+00,0.0000000000e+00,0.0000000000e+00,0.0000000000e+00,0.0000000000e+00
5.8326511197e+05,2.9791869732e-02,8.7607416796e+02,6.6619886641e-03,1.2665846459e-02,1.0464045986e-02,6.1157654800e-14,3.4233740886e-51,4.1897386710e-14,0.0000000000e+00,0.0000000000e+00,0.0000000000e+00,0.0000000000e+00,0.0000000000e+00
5.7309914477e+05,4.2076836373e-02,9.3979396851e+02,9.4091221606e-03,1.7888730767e-02,1.4778995567e-02,8.7683977518e-13,1.5428101669e-47,8.6115893349e-13,0.0000000000e+00,0.0000000000e+00,0.0000000000e+00,0.0000000000e+00,0.0000000000e+00
5.6224069141e+05,5.9427628244e-02,1.0067496867e+03,1.3289053810e-02,2.5265320399e-02,2.0873250965e-02,9.3242789644e-12,2.6089444117e-44,1.2494477505e-11,0.0000000000e+00,0.0000000000e+00,0.0000000000e+00,0.0000000000e+00,0.0000000000e+00
5.5065116725e+05,8.3933187550e-02,1.0770968432e+03,1.8768874561e-02,3.5683710951e-02,2.9480508229e-02,7.9211397890e-11,2.1126245065e-41,1.3949578510e-10,0.0000000000e+00,0.0000000000e+00,0.0000000000e+00,0.0000000000e+00,0.0000000000e+00
5.3830274393e+05,1.1854385208e-01,1.1510615942e+03,2.6508205543e-02,5.0398196801e-02,4.1636961644e-02,5.6571770441e-10,9.6853999689e-39,1.2715062011e-09,0.0000000000e+00,0.0000000000e+00,0.0000000000e+00,0.0000000000e+00,0.0000000000e+00
5.2516995195e+05,1.6742656006e-01,1.2287273493e+03,3.7438412203e-02,7.1180237133e-02,5.8805933816e-02,3.4899004314e-09,2.7491108483e-36,9.7659236498e-09,0.0000000000e+00,0.0000000000e+00,0.0000000000e+00,0.0000000000e+00,0.0000000000e+00
5.1121807513e+05,2.3646652713e-01,1.3099896448e+03,5.2874162897e-02,1.0053158665e-01,8.3053705899e-02,1.8859350157e-08,5.0638546754e-34,6.4265446434e-08,0.0000000000e+00,0.0000000000e+00,0.0000000000e+00,0.0000000000e+00,0.0000000000e+00
4.9641308261e+05,3.3397579471e-01,1.3949297895e+03,7.4670180818e-02,1.4198503534e-01,1.1729737769e-01,9.0526450344e-08,6.3402218861e-32,3.6832610685e-07,0.0000000000e+00,0.0000000000e+00,0.0000000000e+00,0.0000000000e+00,0.0000000000e+00
4.8073192323e+05,4.7169395520e-01,1.4837266111e+03,1.0544072499e-01,2.0052829663e-01,1.6565385563e-01,3.9091469572e-07,5.6290930271e-30,1.8663167133e-06,0.0000000000e+00,0.0000000000e+00,0.0000000000e+00,0.0000000000e+00,0.0000000000e+00
4.6415027151e+05,6.6620153584e-01,1.5766083477e+03,1.4886528707e-01,2.8320006450e-01,2.3393047279e-01,1.5356765184e-06,3.6781641707e-28,8.4714749752e-06,0.0000000000e+00,0.0000000000e+00,0.0000000000e+00,0.0000000000e+00,0.0000000000e+00
4.4662354165e+05,9.4091620523e-01,1.6738280950e+03,2.1011113030e-01,3.9992423155e-01,3.3031349153e-01,5.5409424149e-06,1.8261082233e-26,3.4839187855e-05,0.0000000000e+00,0.0000000000e+00,0.0000000000e+00,0.0000000000e+00,0.0000000000e+00
4.2812166208e+05,1.3289121349e+00,1.7756506638e+03,2.9641101721e-01,5.6466714347e-01,4.6633262534e-01,1.8512539830e-05,7.0781872771e-25,1.3107207750e-04,0.0000000000e+00,0.0000000000e+00,0.0000000000e+00,0.0000000000e+00,0.0000000000e+00
4.0861866132e+05,1.8769019520e+00,1.8823456817e+03,4.1784124983e-01,7.9701805509e-01,6.5821068748e-01,5.7665543298e-05,2.1916345783e-23,4.5481587220e-04,0.0000000000e+00,0.0000000000e+00,0.0000000000e+00,0.0000000000e+00,0.0000000000e+00
3.8806970773e+05,2.6508606889e+00,1.9942094041e+03,5.8834713234e-01,1.1242908651e+00,9.2875211403e-01,1.6846515111e-04,5.5297376472e-22,1.4659825854e-03,0.0000000000e+00,0.0000000000e+00,0.0000000000e+00,0.0000000000e+00,0.0000000000e+00
3.6642449030e+05,3.7439688230e+00,2.1115630754e+03,8.2705442127e-01,1.5841985658e+00,1.3099906052e+00,4.6392724207e-04,1.1564239310e-20,4.4158910968e-03,0.0000000000e+00,0.0000000000e+00,0.0000000000e+00,0.0000000000e+00,0.0000000000e+00
3.4364213708e+05,5.2878307057e+00,2.2347707863e+03,1.1598747313e+00,2.2280131528e+00,1.8469154807e+00,1.2095338903e-03,2.0336745279e-19,1.2494308157e-02,0.0000000000e+00,0.0000000000e+00,0.0000000000e+00,0.0000000000e+00,0.0000000000e+00
3.1967433285e+05,7.4683190204e+00,2.3642527432e+03,1.6213454985e+00,3.1238281064e+00,2.6027420486e+00,2.9964932165e-03,3.0440583225e-18,3.3343527677e-02,0.0000000000e+00,0.0000000000e+00,0.0000000000e+00,0.0000000000e+00,0.0000000000e+00
2.9452298034e+05,1.0547952855e+01,2.4830936338e+03,2.2625450788e+00,4.3693614182e+00,3.6679392869e+00,6.5139010715e-03,3.0001944220e-17,7.6896257158e-02,0.0000000000e+00,0.0000000000e+00,0.0000000000e+00,0.0000000000e+00,0.0000000000e+00
2.6835111684e+05,1.4897503592e+01,2.5837502116e+03,3.1591028699e+00,6.1095493766e+00,5.1709255725e+00,1.2338685533e-02,1.9012333528e-16,1.5220440292e-01,0.0000000000e+00,0.0000000000e+00,0.0000000000e+00,0.0000000000e+00,0.0000000000e+00
2.4133202480e+05,2.1040633792e+01,2.6763241880e+03,4.4115870022e+00,8.5394695346e+00,7.2911689133e+00,2.1797853537e-02,9.6350408997e-16,2.7877249035e-01,0.0000000000e+00,0.0000000000e+00,0.0000000000e+00,0.0000000000e+00,0.0000000000e+00
2.1353073419e+05,2.9716943355e+01,2.7654109568e+03,6.1598572431e+00,1.1929850009e+01,1.0281791631e+01,3.6957379837e-02,4.2807818643e-15,4.8765898832e-01,0.0000000000e+00,0.0000000000e+00,0.0000000000e+00,0.0000000000e+00,0.0000000000e+00
1.8497157328e+05,4.1971013377e+01,2.8529716298e+03,8.5993050077e+00,1.6658496006e+01,1.4499867343e+01,6.0888687548e-02,1.7354517727e-14,8.2607559514e-01,0.0000000000e+00,0.0000000000e+00,0.0000000000e+00,0.0000000000e+00,0.0000000000e+00
1.5568317057e+05,5.9278168109e+01,2.9398508703e+03,1.2003321202e+01,2.3254025406e+01,2.0449034913e+01,9.8077806756e-02,6.5469144526e-14,1.3643394895e+00,0.0000000000e+00,0.0000000000e+00,0.0000000000e+00,0.0000000000e+00,0.0000000000e+00
1.2568781051e+05,8.3722096077e+01,3.0262988476e+03,1.6755449957e+01,3.2458813259e+01,2.8839668716e+01,1.5494129331e-01,2.3215043675e-13,2.2048415285e+00,0.0000000000e+00,0.0000000000e+00,0.0000000000e+00,0.0000000000e+00,0.0000000000e+00
9.4961350579e+04,1.1824571499e+02,3.1135129589e+03,2.3386714734e+01,4.5300639579e+01,4.0672441564e+01,2.4135917101e-01,7.8732312982e-13,3.5072385744e+00,0.0000000000e+00,0.0000000000e+00,0.0000000000e+00,0.0000000000e+00,0.0000000000e+00
6.3473776160e+04,1.6700548325e+02,3.2038024524e+03,3.2621919973e+01,6.3178966929e+01,5.7355234428e+01,3.7344579826e-01,2.6148007333e-12,5.5349420660e+00,0.0000000000e+00,0.0000000000e+00,0.0000000000e+00,0.0000000000e+00,0.0000000000e+00
3.1160765641e+04,2.3587181521e+02,3.3018204324e+03,4.5413809413e+01,8.7916094011e+01,8.0862838981e+01,5.8055104579e-01,8.8267044027e-12,8.7722095880e+00,0.0000000000e+00,0.0000000000e+00,0.0000000000e+00,0.0000000000e+00,0.0000000000e+00
7.0014122541e+03,3.0007172778e+02,3.3865117270e+03,5.6910925208e+01,1.1004965704e+02,1.0269584159e+02,8.1306005623e-01,2.2680145635e-11,1.2464438131e+01,0.0000000000e+00,0.0000000000e+00,0.0000000000e+00,0.0000000000e+00,0.0000000000e+00
8.5646701463e+01,3.2149692746e+02,3.4469183137e+03,5.9974792824e+01,1.1566571834e+02,1.0985685074e+02,9.6987236549e-01,3.8525194548e-11,1.4983268845e+01,0.0000000000e+00,0.0000000000e+00,0.0000000000e+00,0.0000000000e+00,0.0000000000e+00
