#nT       210
#1:Tsb[K], 2:dHm/dTs[J/K], 3:phi_bulk(in mass), 4:phi_bulk(in vol) 5:dphi(mass)/dTs, 6:Rtr(Rheological transition)[m]
    0.3395000000E+04    0.4238522070E+28    0.1000000000E+01    0.1000000000E+01   -0.0000000000E+00    0.3332557250E+07
    0.3385000000E+04    0.4238522070E+28    0.1000000000E+01    0.1000000000E+01   -0.0000000000E+00    0.3332557250E+07
    0.3375000000E+04    0.4237934212E+28    0.9995897524E+00    0.9996490751E+00    0.4102475912E-04    0.3332557250E+07
    0.3365000000E+04    0.4236705432E+28    0.9988173937E+00    0.9989848171E+00    0.7723587232E-04    0.3332557250E+07
    0.3355000000E+04    0.4235617684E+28    0.9978208406E+00    0.9981243165E+00    0.9965530574E-04    0.3332557250E+07
    0.3345000000E+04    0.4234425920E+28    0.9966427258E+00    0.9971037451E+00    0.1178114843E-03    0.3332557250E+07
    0.3335000000E+04    0.4233293394E+28    0.9953070013E+00    0.9959434046E+00    0.1335724500E-03    0.3332557250E+07
    0.3325000000E+04    0.4232139618E+28    0.9938297691E+00    0.9946569327E+00    0.1477232163E-03    0.3332557250E+07
    0.3315000000E+04    0.4231016100E+28    0.9922226605E+00    0.9932541681E+00    0.1607108665E-03    0.3332557250E+07
    0.3305000000E+04    0.4230073928E+28    0.9904943070E+00    0.9917423941E+00    0.1728353409E-03    0.3332557250E+07
    0.3295000000E+04    0.4228545013E+28    0.9886530333E+00    0.9901286724E+00    0.1841273768E-03    0.3332557250E+07
    0.3285000000E+04    0.4227840967E+28    0.9867031105E+00    0.9884165480E+00    0.1949922734E-03    0.3332557250E+07
    0.3275000000E+04    0.4226288250E+28    0.9846511466E+00    0.9866116416E+00    0.2051963988E-03    0.3332557250E+07
    0.3265000000E+04    0.4225485441E+28    0.9824998701E+00    0.9847161869E+00    0.2151276480E-03    0.3332557250E+07
    0.3255000000E+04    0.4223853270E+28    0.9802545618E+00    0.9827346816E+00    0.2245308258E-03    0.3332557250E+07
    0.3245000000E+04    0.4222963526E+28    0.9779169237E+00    0.9806684823E+00    0.2337638120E-03    0.3332557250E+07
    0.3235000000E+04    0.4221894312E+28    0.9754901093E+00    0.9785202369E+00    0.2426814443E-03    0.3332557250E+07
    0.3225000000E+04    0.4220502054E+28    0.9729772527E+00    0.9762925890E+00    0.2512856541E-03    0.3332557250E+07
    0.3215000000E+04    0.4219384143E+28    0.9703800274E+00    0.9739868973E+00    0.2597225274E-03    0.3332557250E+07
    0.3205000000E+04    0.4218194505E+28    0.9677005757E+00    0.9716049430E+00    0.2679451785E-03    0.3332557250E+07
    0.3195000000E+04    0.4217240951E+28    0.9649402224E+00    0.9691477871E+00    0.2760353247E-03    0.3332557250E+07
    0.3185000000E+04    0.4215459391E+28    0.9621022888E+00    0.9666182751E+00    0.2837933629E-03    0.3332557250E+07
    0.3175000000E+04    0.4214825835E+28    0.9591859271E+00    0.9640155429E+00    0.2916361688E-03    0.3332557250E+07
    0.3165000000E+04    0.4213606568E+28    0.9561936886E+00    0.9613417596E+00    0.2992238468E-03    0.3332557250E+07
    0.3155000000E+04    0.4211362914E+28    0.9531289303E+00    0.9585998256E+00    0.3064758305E-03    0.3332557250E+07
    0.3145000000E+04    0.4211753157E+28    0.9499873679E+00    0.9557858050E+00    0.3141562395E-03    0.3332557250E+07
    0.3135000000E+04    0.4208659278E+28    0.9467772490E+00    0.9529069879E+00    0.3210118963E-03    0.3332557250E+07
    0.3125000000E+04    0.4209195608E+28    0.9434920176E+00    0.9499573985E+00    0.3285231350E-03    0.3332557250E+07
    0.3115000000E+04    0.4206647120E+28    0.9401389747E+00    0.9469434952E+00    0.3353042870E-03    0.3332557250E+07
    0.3105000000E+04    0.4205361778E+28    0.9367163205E+00    0.9438635708E+00    0.3422654228E-03    0.3332557250E+07
    0.3095000000E+04    0.4204127825E+28    0.9332247058E+00    0.9407181189E+00    0.3491614696E-03    0.3332557250E+07
    0.3085000000E+04    0.4202821816E+28    0.9296649827E+00    0.9375078159E+00    0.3559723121E-03    0.3332557250E+07
    0.3075000000E+04    0.4202874656E+28    0.9260349167E+00    0.9342305525E+00    0.3630066040E-03    0.3332557250E+07
    0.3065000000E+04    0.4199483175E+28    0.9223424066E+00    0.9308933733E+00    0.3692510083E-03    0.3332557250E+07
    0.3055000000E+04    0.4198764982E+28    0.9185823412E+00    0.9274915751E+00    0.3760065338E-03    0.3332557250E+07
    0.3045000000E+04    0.4197545903E+28    0.9147562901E+00    0.9240264882E+00    0.3826051106E-03    0.3332557250E+07
    0.3035000000E+04    0.4197554312E+28    0.9108620783E+00    0.9204960517E+00    0.3894211794E-03    0.3332557250E+07
    0.3025000000E+04    0.4194853590E+28    0.9069059584E+00    0.9169058476E+00    0.3956119940E-03    0.3332557250E+07
    0.3015000000E+04    0.4193079405E+28    0.9028863509E+00    0.9132543621E+00    0.4019607454E-03    0.3332557250E+07
    0.3005000000E+04    0.4192365525E+28    0.8988013229E+00    0.9095397529E+00    0.4085028015E-03    0.3332557250E+07
    0.2995000000E+04    0.4190475982E+28    0.8946537601E+00    0.9057645585E+00    0.4147562802E-03    0.3332557250E+07
    0.2985000000E+04    0.4187089732E+28    0.8904472613E+00    0.9019319769E+00    0.4206498800E-03    0.3332557250E+07
    0.2975000000E+04    0.4189704803E+28    0.8861689433E+00    0.8980301795E+00    0.4278318000E-03    0.3332557250E+07
    0.2965000000E+04    0.4185726505E+28    0.8818335239E+00    0.8940725000E+00    0.4335419402E-03    0.3332557250E+07
    0.2955000000E+04    0.4185259689E+28    0.8774335051E+00    0.8900520137E+00    0.4400018850E-03    0.3332557250E+07
    0.2945000000E+04    0.4182926231E+28    0.8729732201E+00    0.8859725956E+00    0.4460284932E-03    0.3332557250E+07
    0.2935000000E+04    0.4181452850E+28    0.8684509492E+00    0.8818325908E+00    0.4522270903E-03    0.3332557250E+07
    0.2925000000E+04    0.4177653436E+28    0.8638720699E+00    0.8776368446E+00    0.4578879354E-03    0.3332557250E+07
    0.2915000000E+04    0.4181407724E+28    0.8592197667E+00    0.8733698556E+00    0.4652303154E-03    0.3332557250E+07
    0.2905000000E+04    0.4176012049E+28    0.8545147102E+00    0.8690504940E+00    0.4705056510E-03    0.3332557250E+07
    0.2895000000E+04    0.4174783327E+28    0.8497476438E+00    0.8646701875E+00    0.4767066416E-03    0.3332557250E+07
    0.2885000000E+04    0.4174533343E+28    0.8449164112E+00    0.8602268654E+00    0.4831232587E-03    0.3332557250E+07
    0.2875000000E+04    0.4171254446E+28    0.8400279733E+00    0.8557268458E+00    0.4888437958E-03    0.3332557250E+07
    0.2865000000E+04    0.4168652542E+28    0.8350808707E+00    0.8511687080E+00    0.4947102563E-03    0.3332557250E+07
    0.2855000000E+04    0.4171335845E+28    0.8300629753E+00    0.8465411826E+00    0.5017895405E-03    0.3332557250E+07
    0.2845000000E+04    0.4166082293E+28    0.8249925671E+00    0.8418610401E+00    0.5070408198E-03    0.3332557250E+07
    0.2835000000E+04    0.4166141851E+28    0.8198573989E+00    0.8371168956E+00    0.5135168169E-03    0.3332557250E+07
    0.2825000000E+04    0.4162185241E+28    0.8146667906E+00    0.8323172748E+00    0.5190608331E-03    0.3332557250E+07
    0.2815000000E+04    0.4164167586E+28    0.8094068651E+00    0.8274492558E+00    0.5259925520E-03    0.3332557250E+07
    0.2805000000E+04    0.4156324993E+28    0.8041006094E+00    0.8225340331E+00    0.5306255641E-03    0.3332557250E+07
    0.2795000000E+04    0.4160225953E+28    0.7987204025E+00    0.8175459359E+00    0.5380206968E-03    0.3332557250E+07
    0.2785000000E+04    0.4159661996E+28    0.7932766218E+00    0.8124944787E+00    0.5443780651E-03    0.3332557250E+07
    0.2775000000E+04    0.4153749467E+28    0.7877819133E+00    0.8073913169E+00    0.5494708501E-03    0.3332557250E+07
    0.2765000000E+04    0.4148148579E+28    0.7822355807E+00    0.8022357394E+00    0.5546332599E-03    0.3332557250E+07
    0.2755000000E+04    0.4156781926E+28    0.7766034513E+00    0.7969958739E+00    0.5632129401E-03    0.3332557250E+07
    0.2745000000E+04    0.4145987471E+28    0.7709320023E+00    0.7917148684E+00    0.5671449024E-03    0.3332557250E+07
    0.2735000000E+04    0.4149942982E+28    0.7651856660E+00    0.7863595246E+00    0.5746336304E-03    0.3332557250E+07
    0.2725000000E+04    0.4139815397E+28    0.7593984347E+00    0.7809614407E+00    0.5787231238E-03    0.3332557250E+07
    0.2715000000E+04    0.4145874597E+28    0.7535308974E+00    0.7754837683E+00    0.5867537341E-03    0.3332557250E+07
    0.2705000000E+04    0.4145309757E+28    0.7475989539E+00    0.7699412350E+00    0.5931943515E-03    0.3332557250E+07
    0.2695000000E+04    0.4136869797E+28    0.7416218583E+00    0.7643517575E+00    0.5977095551E-03    0.3332557250E+07
    0.2685000000E+04    0.4137740861E+28    0.7355766524E+00    0.7586937888E+00    0.6045205901E-03    0.3332557250E+07
    0.2675000000E+04    0.4130191478E+28    0.7294840649E+00    0.7529866497E+00    0.6092587560E-03    0.3332557250E+07
    0.2665000000E+04    0.4132899149E+28    0.7233185506E+00    0.7472063259E+00    0.6165514262E-03    0.3332557250E+07
    0.2655000000E+04    0.4137106328E+28    0.7170760870E+00    0.7413489262E+00    0.6242463599E-03    0.3332557250E+07
    0.2645000000E+04    0.4132049630E+28    0.7107796948E+00    0.7354359545E+00    0.6296392219E-03    0.3332557250E+07
    0.2635000000E+04    0.4127481630E+28    0.7044281341E+00    0.7294661763E+00    0.6351560678E-03    0.3332557250E+07
    0.2625000000E+04    0.4123489810E+28    0.6980199304E+00    0.7234381330E+00    0.6408203702E-03    0.3332557250E+07
    0.2615000000E+04    0.4120168234E+28    0.6915533545E+00    0.7173501226E+00    0.6466575907E-03    0.3332557250E+07
    0.2605000000E+04    0.4117616510E+28    0.6850264052E+00    0.7112001826E+00    0.6526949298E-03    0.3332557250E+07
    0.2595000000E+04    0.4115938078E+28    0.6784367963E+00    0.7049860767E+00    0.6589608870E-03    0.3332557250E+07
    0.2585000000E+04    0.4115237624E+28    0.6717819506E+00    0.6987052882E+00    0.6654845742E-03    0.3332557250E+07
    0.2575000000E+04    0.4115617403E+28    0.6650590035E+00    0.6923550230E+00    0.6722947128E-03    0.3332557250E+07
    0.2565000000E+04    0.4110046423E+28    0.6582851091E+00    0.6859515451E+00    0.6773894359E-03    0.3332557250E+07
    0.2555000000E+04    0.4105432234E+28    0.6514265719E+00    0.6794604557E+00    0.6858537250E-03    0.3332557250E+07
    0.2545000000E+04    0.4105964359E+28    0.6444458097E+00    0.6728440997E+00    0.6980762206E-03    0.3332557250E+07
    0.2535000000E+04    0.4105720177E+28    0.6373535946E+00    0.6661131167E+00    0.7092215020E-03    0.3332557250E+07
    0.2525000000E+04    0.4094539417E+28    0.6301876824E+00    0.6593038445E+00    0.7165912195E-03    0.3332557250E+07
    0.2515000000E+04    0.4090517132E+28    0.6229374438E+00    0.6524067117E+00    0.7250238633E-03    0.3332557250E+07
    0.2505000000E+04    0.4095563800E+28    0.6155863207E+00    0.6454064293E+00    0.7351123144E-03    0.3332557250E+07
    0.2495000000E+04    0.4087998018E+28    0.6081757920E+00    0.6383429733E+00    0.7410528621E-03    0.3332557250E+07
    0.2485000000E+04    0.4076762120E+28    0.6007231416E+00    0.6312333442E+00    0.7452650463E-03    0.3332557250E+07
    0.2475000000E+04    0.4086956433E+28    0.5931768347E+00    0.6240288360E+00    0.7546306920E-03    0.3332557250E+07
    0.2465000000E+04    0.4081196572E+28    0.5855865760E+00    0.6167773297E+00    0.7590258698E-03    0.3332557250E+07
    0.2455000000E+04    0.4069670967E+28    0.5779741959E+00    0.6095001519E+00    0.7612380085E-03    0.3332557250E+07
    0.2445000000E+04    0.4080710913E+28    0.5702834028E+00    0.6021439001E+00    0.7690793065E-03    0.3332557250E+07
    0.2435000000E+04    0.4070194451E+28    0.5625785020E+00    0.5947704711E+00    0.7704900813E-03    0.3332557250E+07
    0.2425000000E+04    0.4082556387E+28    0.5548010433E+00    0.5873242696E+00    0.7777458658E-03    0.3332557250E+07
    0.2415000000E+04    0.4067984850E+28    0.5470282399E+00    0.5798794531E+00    0.7772803421E-03    0.3332557250E+07
    0.2405000000E+04    0.4077613950E+28    0.5391960420E+00    0.5723748846E+00    0.7832197932E-03    0.3332557250E+07
    0.2395000000E+04    0.4071551389E+28    0.5313502308E+00    0.5648546180E+00    0.7845811198E-03    0.3332557250E+07
    0.2385000000E+04    0.4067670293E+28    0.5234871565E+00    0.5573153524E+00    0.7863074313E-03    0.3332557250E+07
    0.2375000000E+04    0.4065347204E+28    0.5156047171E+00    0.5497552548E+00    0.7882439362E-03    0.3332557250E+07
    0.2365000000E+04    0.4062974150E+28    0.5077051076E+00    0.5421766004E+00    0.7899609554E-03    0.3332557250E+07
    0.2355000000E+04    0.4057366510E+28    0.4997992275E+00    0.5345900093E+00    0.7905880025E-03    0.3332557250E+07
    0.2345000000E+04    0.4098252305E+28    0.4917596580E+00    0.5268733225E+00    0.8039569548E-03    0.3332557250E+07
    0.2335000000E+04    0.4019321177E+28    0.4839210595E+00    0.5193479287E+00    0.7838598451E-03    0.3332557250E+07
    0.2325000000E+04    0.4105880879E+28    0.4758247595E+00    0.5115736077E+00    0.8096300054E-03    0.3332557250E+07
    0.2315000000E+04    0.4037194079E+28    0.4679041505E+00    0.5039666206E+00    0.7920609003E-03    0.3332557250E+07
    0.2305000000E+04    0.4039836286E+28    0.4599336382E+00    0.4963079015E+00    0.7970512264E-03    0.3332557250E+07
    0.2295000000E+04    0.4044893214E+28    0.4517761521E+00    0.4884522221E+00    0.8157486129E-03    0.3358823095E+07
    0.2285000000E+04    0.3930652140E+28    0.4436722657E+00    0.4806109795E+00    0.8103886339E-03    0.3442592621E+07
    0.2275000000E+04    0.3809548741E+28    0.4356149860E+00    0.4727728216E+00    0.8057279776E-03    0.3559088006E+07
    0.2265000000E+04    0.3672418360E+28    0.4276396822E+00    0.4649711704E+00    0.7975303808E-03    0.3678084852E+07
    0.2255000000E+04    0.3518936304E+28    0.4197876192E+00    0.4572460824E+00    0.7852062916E-03    0.3798436818E+07
    0.2245000000E+04    0.3368662672E+28    0.4120431948E+00    0.4495822575E+00    0.7744424458E-03    0.3919057050E+07
    0.2235000000E+04    0.3214699759E+28    0.4044151666E+00    0.4419885949E+00    0.7628028184E-03    0.4038775411E+07
    0.2225000000E+04    0.3059664626E+28    0.3969088736E+00    0.4344711110E+00    0.7506292983E-03    0.4155947295E+07
    0.2215000000E+04    0.2906707501E+28    0.3895248343E+00    0.4270315234E+00    0.7384039310E-03    0.4268735713E+07
    0.2205000000E+04    0.2748956731E+28    0.3822966628E+00    0.4197057049E+00    0.7228171473E-03    0.4375082517E+07
    0.2195000000E+04    0.2599377391E+28    0.3752185078E+00    0.4124904567E+00    0.7078154995E-03    0.4473271184E+07
    0.2185000000E+04    0.2470809784E+28    0.3682356553E+00    0.4053325960E+00    0.6982852523E-03    0.4562672548E+07
    0.2175000000E+04    0.2342520099E+28    0.3609953215E+00    0.3978305656E+00    0.7240333805E-03    0.4643037972E+07
    0.2165000000E+04    0.2193325223E+28    0.3531579569E+00    0.3895942378E+00    0.7837364657E-03    0.4713760693E+07
    0.2155000000E+04    0.2075979198E+28    0.3446294083E+00    0.3805399794E+00    0.8528548562E-03    0.4775308648E+07
    0.2145000000E+04    0.1999348041E+28    0.3361785476E+00    0.3715358549E+00    0.8450860669E-03    0.4829547323E+07
    0.2135000000E+04    0.1922377272E+28    0.3279056276E+00    0.3626952175E+00    0.8272920036E-03    0.4877727898E+07
    0.2125000000E+04    0.1855709812E+28    0.3197951612E+00    0.3540050052E+00    0.8110466364E-03    0.4920468499E+07
    0.2115000000E+04    0.1795974201E+28    0.3118403125E+00    0.3454607485E+00    0.7954848711E-03    0.4958502357E+07
    0.2105000000E+04    0.1747656677E+28    0.3040073063E+00    0.3370284954E+00    0.7833006169E-03    0.4992523215E+07
    0.2095000000E+04    0.1702865155E+28    0.2962960474E+00    0.3287100814E+00    0.7711258906E-03    0.5023069326E+07
    0.2085000000E+04    0.1652302460E+28    0.2887485644E+00    0.3205527093E+00    0.7547483076E-03    0.5050477311E+07
    0.2075000000E+04    0.1620949576E+28    0.2812833859E+00    0.3124698970E+00    0.7465178472E-03    0.5075175047E+07
    0.2065000000E+04    0.1579774036E+28    0.2739576879E+00    0.3045249107E+00    0.7325697996E-03    0.5097525376E+07
    0.2055000000E+04    0.1551133303E+28    0.2667184138E+00    0.2966614693E+00    0.7239274094E-03    0.5117782771E+07
    0.2045000000E+04    0.1526662435E+28    0.2595517361E+00    0.2888655528E+00    0.7166677681E-03    0.5136247478E+07
    0.2035000000E+04    0.1490874691E+28    0.2525181241E+00    0.2812039691E+00    0.7033612070E-03    0.5153066242E+07
    0.2025000000E+04    0.1469352391E+28    0.2455525471E+00    0.2736068293E+00    0.6965576938E-03    0.5168402034E+07
    0.2015000000E+04    0.1447576791E+28    0.2386598976E+00    0.2660802279E+00    0.6892649526E-03    0.5182462180E+07
    0.2005000000E+04    0.1431703173E+28    0.2318145263E+00    0.2585968285E+00    0.6845371283E-03    0.5195384254E+07
    0.1995000000E+04    0.1406462879E+28    0.2250643732E+00    0.2512097084E+00    0.6750153157E-03    0.5207249634E+07
    0.1985000000E+04    0.1392986666E+28    0.2183538175E+00    0.2438586527E+00    0.6710555701E-03    0.5218169196E+07
    0.1975000000E+04    0.1658108965E+28    0.2103364698E+00    0.2350673913E+00    0.8017347612E-03    0.5229216819E+07
    0.1965000000E+04    0.2257320806E+28    0.1994048430E+00    0.2230694662E+00    0.1093162684E-02    0.5242175463E+07
    0.1955000000E+04    0.2222239101E+28    0.1886309341E+00    0.2112339674E+00    0.1077390887E-02    0.5255625660E+07
    0.1945000000E+04    0.2191236480E+28    0.1779952778E+00    0.1995411014E+00    0.1063565629E-02    0.5267481010E+07
    0.1935000000E+04    0.2163773322E+28    0.1674809920E+00    0.1879736488E+00    0.1051428582E-02    0.5277980710E+07
    0.1925000000E+04    0.2139394555E+28    0.1570733939E+00    0.1765165922E+00    0.1040759807E-02    0.5287279014E+07
    0.1915000000E+04    0.2117713689E+28    0.1467596829E+00    0.1651568075E+00    0.1031371100E-02    0.5295531337E+07
    0.1905000000E+04    0.2098400825E+28    0.1365286742E+00    0.1538828021E+00    0.1023100873E-02    0.5302879520E+07
    0.1895000000E+04    0.2081172570E+28    0.1263705767E+00    0.1426844960E+00    0.1015809748E-02    0.5309422741E+07
    0.1885000000E+04    0.2065784447E+28    0.1162768050E+00    0.1315530348E+00    0.1009377171E-02    0.5315260678E+07
    0.1875000000E+04    0.2052024522E+28    0.1062398199E+00    0.1204806312E+00    0.1003698513E-02    0.5320478953E+07
    0.1865000000E+04    0.2039708376E+28    0.9625299247E-01    0.1094604284E+00    0.9986827428E-03    0.5325149012E+07
    0.1855000000E+04    0.2028674861E+28    0.8631048812E-01    0.9848638369E-01    0.9942504353E-03    0.5329328051E+07
    0.1845000000E+04    0.2018782815E+28    0.7640716622E-01    0.8755316702E-01    0.9903321902E-03    0.5333073456E+07
    0.1835000000E+04    0.2009907941E+28    0.6653849474E-01    0.7665607470E-01    0.9868671473E-03    0.5336428252E+07
    0.1825000000E+04    0.1499781217E+28    0.5919113174E-01    0.6843717472E-01    0.7347363003E-03    0.5471127591E+07
    0.1815000000E+04    0.1192362164E+28    0.5359077301E-01    0.6210297212E-01    0.5600358726E-03    0.5635539605E+07
    0.1805000000E+04    0.1049869127E+28    0.4884654219E-01    0.5670868024E-01    0.4744230822E-03    0.5688200768E+07
    0.1795000000E+04    0.9450974652E+27    0.4472733989E-01    0.5200593915E-01    0.4119202300E-03    0.5726069040E+07
    0.1785000000E+04    0.8613443549E+27    0.4109144729E-01    0.4784116834E-01    0.3635892598E-03    0.5756049492E+07
    0.1775000000E+04    0.7914433627E+27    0.3784331200E-01    0.4411015276E-01    0.3248135294E-03    0.5780929629E+07
    0.1765000000E+04    0.7315180571E+27    0.3491486666E-01    0.4073826680E-01    0.2928445341E-03    0.5802196423E+07
