#nT       210
#1:Tsb[K], 2:dHm/dTs[J/K], 3:phi_bulk(in mass), 4:phi_bulk(in vol) 5:dphi(mass)/dTs, 6:Rtr(Rheological transition)[m]
    0.3395000000E+04    0.5209387460E+28    0.1000000000E+01    0.1000000000E+01   -0.0000000000E+00    0.3507955000E+07
    0.3385000000E+04    0.5209387460E+28    0.1000000000E+01    0.1000000000E+01   -0.0000000000E+00    0.3507955000E+07
    0.3375000000E+04    0.5203716153E+28    0.9992779134E+00    0.9993725547E+00    0.7220865786E-04    0.3507955000E+07
    0.3365000000E+04    0.5197914116E+28    0.9978382518E+00    0.9981215871E+00    0.1439661609E-03    0.3507955000E+07
    0.3355000000E+04    0.5194351967E+28    0.9959588122E+00    0.9964884759E+00    0.1879439611E-03    0.3507955000E+07
    0.3345000000E+04    0.5191770665E+28    0.9937478183E+00    0.9945665008E+00    0.2210993904E-03    0.3507955000E+07
    0.3335000000E+04    0.5188991669E+28    0.9913670332E+00    0.9924918893E+00    0.2380785143E-03    0.3507955000E+07
    0.3325000000E+04    0.5186775706E+28    0.9888521997E+00    0.9902949996E+00    0.2514833497E-03    0.3507955000E+07
    0.3315000000E+04    0.5184643099E+28    0.9862151507E+00    0.9879861085E+00    0.2637048916E-03    0.3507955000E+07
    0.3305000000E+04    0.5182484391E+28    0.9834651054E+00    0.9855732193E+00    0.2750045322E-03    0.3507955000E+07
    0.3295000000E+04    0.5180339858E+28    0.9806093500E+00    0.9830626530E+00    0.2855755427E-03    0.3507955000E+07
    0.3285000000E+04    0.5177759042E+28    0.9776545886E+00    0.9804602319E+00    0.2954761368E-03    0.3507955000E+07
    0.3275000000E+04    0.5175795937E+28    0.9746048200E+00    0.9777694049E+00    0.3049768640E-03    0.3507955000E+07
    0.3265000000E+04    0.5173951819E+28    0.9714641104E+00    0.9749936848E+00    0.3140709594E-03    0.3507955000E+07
    0.3255000000E+04    0.5172153223E+28    0.9682360605E+00    0.9721361789E+00    0.3228049861E-03    0.3507955000E+07
    0.3245000000E+04    0.5169853184E+28    0.9649247082E+00    0.9692003889E+00    0.3311352339E-03    0.3507955000E+07
    0.3235000000E+04    0.5167771040E+28    0.9615325202E+00    0.9661884311E+00    0.3392187947E-03    0.3507955000E+07
    0.3225000000E+04    0.5166129758E+28    0.9580612707E+00    0.9631018087E+00    0.3471249568E-03    0.3507955000E+07
    0.3215000000E+04    0.5164195248E+28    0.9545136857E+00    0.9599428741E+00    0.3547584967E-03    0.3507955000E+07
    0.3205000000E+04    0.5162468202E+28    0.9508914306E+00    0.9567130393E+00    0.3622255086E-03    0.3507955000E+07
    0.3195000000E+04    0.5158908442E+28    0.9471993990E+00    0.9534166028E+00    0.3692031655E-03    0.3507955000E+07
    0.3185000000E+04    0.5158653320E+28    0.9434336954E+00    0.9500500175E+00    0.3765703523E-03    0.3507955000E+07
    0.3175000000E+04    0.5155528182E+28    0.9396006452E+00    0.9466188685E+00    0.3833050271E-03    0.3507955000E+07
    0.3165000000E+04    0.5155343817E+28    0.9356966558E+00    0.9431198706E+00    0.3903989390E-03    0.3507955000E+07
    0.3155000000E+04    0.5150984958E+28    0.9317300464E+00    0.9395604145E+00    0.3966609402E-03    0.3507955000E+07
    0.3145000000E+04    0.5150976423E+28    0.9276945971E+00    0.9359348529E+00    0.4035449302E-03    0.3507955000E+07
    0.3135000000E+04    0.5147674579E+28    0.9235969638E+00    0.9322490973E+00    0.4097633286E-03    0.3507955000E+07
    0.3125000000E+04    0.5146663520E+28    0.9194342217E+00    0.9285004516E+00    0.4162742060E-03    0.3507955000E+07
    0.3115000000E+04    0.5143520263E+28    0.9152109205E+00    0.9246929470E+00    0.4223301281E-03    0.3507955000E+07
    0.3105000000E+04    0.5142484053E+28    0.9109242838E+00    0.9208240151E+00    0.4286636633E-03    0.3507955000E+07
    0.3095000000E+04    0.5141195212E+28    0.9065755063E+00    0.9168946637E+00    0.4348777534E-03    0.3507955000E+07
    0.3085000000E+04    0.5136606374E+28    0.9021710063E+00    0.9129106312E+00    0.4404499970E-03    0.3507955000E+07
    0.3075000000E+04    0.5136549648E+28    0.8977036149E+00    0.9088653685E+00    0.4467391422E-03    0.3507955000E+07
    0.3065000000E+04    0.5135718797E+28    0.8931752647E+00    0.9047605519E+00    0.4528350194E-03    0.3507955000E+07
    0.3055000000E+04    0.5130536711E+28    0.8885941069E+00    0.9006035090E+00    0.4581157820E-03    0.3507955000E+07
    0.3045000000E+04    0.5130078860E+28    0.8839524410E+00    0.8963871901E+00    0.4641665917E-03    0.3507955000E+07
    0.3035000000E+04    0.5128111459E+28    0.8792533834E+00    0.8921143557E+00    0.4699057587E-03    0.3507955000E+07
    0.3025000000E+04    0.5127884805E+28    0.8744943171E+00    0.8877825550E+00    0.4759066275E-03    0.3507955000E+07
    0.3015000000E+04    0.5121827840E+28    0.8696859378E+00    0.8834014622E+00    0.4808379307E-03    0.3507955000E+07
    0.3005000000E+04    0.5124967531E+28    0.8648123889E+00    0.8789565601E+00    0.4873548863E-03    0.3507955000E+07
    0.2995000000E+04    0.5117672378E+28    0.8598925016E+00    0.8744649563E+00    0.4919887314E-03    0.3507955000E+07
    0.2985000000E+04    0.5115647074E+28    0.8549172878E+00    0.8699183902E+00    0.4975213835E-03    0.3507955000E+07
    0.2975000000E+04    0.5119833961E+28    0.8498759304E+00    0.8653068940E+00    0.5041357411E-03    0.3507955000E+07
    0.2965000000E+04    0.5111770788E+28    0.8447905926E+00    0.8606506722E+00    0.5085337760E-03    0.3507955000E+07
    0.2955000000E+04    0.5109429303E+28    0.8396513232E+00    0.8559405596E+00    0.5139269390E-03    0.3507955000E+07
    0.2945000000E+04    0.5108508647E+28    0.8344557892E+00    0.8511743470E+00    0.5195534010E-03    0.3507955000E+07
    0.2935000000E+04    0.5109174688E+28    0.8292013025E+00    0.8463494899E+00    0.5254486678E-03    0.3507955000E+07
    0.2925000000E+04    0.5105809068E+28    0.8238953330E+00    0.8414727741E+00    0.5305969582E-03    0.3507955000E+07
    0.2915000000E+04    0.5097590509E+28    0.8185469227E+00    0.8365524574E+00    0.5348410261E-03    0.3507955000E+07
    0.2905000000E+04    0.5102548638E+28    0.8131322145E+00    0.8315665193E+00    0.5414708172E-03    0.3507955000E+07
    0.2895000000E+04    0.5096626874E+28    0.8076711902E+00    0.8265332807E+00    0.5461024268E-03    0.3507955000E+07
    0.2885000000E+04    0.5098391075E+28    0.8021498737E+00    0.8214397884E+00    0.5521316588E-03    0.3507955000E+07
    0.2875000000E+04    0.5094813301E+28    0.7965781654E+00    0.8162950981E+00    0.5571708256E-03    0.3507955000E+07
    0.2865000000E+04    0.5084868580E+28    0.7909679821E+00    0.8111101621E+00    0.5610183333E-03    0.3507955000E+07
    0.2855000000E+04    0.5090769105E+28    0.7852900529E+00    0.8058578548E+00    0.5677929192E-03    0.3507955000E+07
    0.2845000000E+04    0.5090892192E+28    0.7795550676E+00    0.8005479670E+00    0.5734985295E-03    0.3507955000E+07
    0.2835000000E+04    0.5084107186E+28    0.7737759645E+00    0.7951924093E+00    0.5779103097E-03    0.3507955000E+07
    0.2825000000E+04    0.5077971979E+28    0.7679516379E+00    0.7897901026E+00    0.5824326575E-03    0.3507955000E+07
    0.2815000000E+04    0.5081762966E+28    0.7620634560E+00    0.7843236854E+00    0.5888181948E-03    0.3507955000E+07
    0.2805000000E+04    0.5078010136E+28    0.7561255858E+00    0.7788062241E+00    0.5937870203E-03    0.3507955000E+07
    0.2795000000E+04    0.5065330222E+28    0.7501550085E+00    0.7732534499E+00    0.5970577247E-03    0.3507955000E+07
    0.2785000000E+04    0.5073311920E+28    0.7441125307E+00    0.7676288361E+00    0.6042477830E-03    0.3507955000E+07
    0.2775000000E+04    0.5073041898E+28    0.7380137068E+00    0.7619467562E+00    0.6098823925E-03    0.3507955000E+07
    0.2765000000E+04    0.5062984485E+28    0.7318772510E+00    0.7562245822E+00    0.6136455808E-03    0.3507955000E+07
    0.2755000000E+04    0.5064877278E+28    0.7256802561E+00    0.7504408843E+00    0.6196994895E-03    0.3507955000E+07
    0.2745000000E+04    0.5068527858E+28    0.7194191872E+00    0.7445922617E+00    0.6261068887E-03    0.3507955000E+07
    0.2735000000E+04    0.5048725861E+28    0.7131393736E+00    0.7387210066E+00    0.6279813551E-03    0.3507955000E+07
    0.2725000000E+04    0.5067621361E+28    0.7067657540E+00    0.7327568540E+00    0.6373619587E-03    0.3507955000E+07
    0.2715000000E+04    0.5049104114E+28    0.7003709411E+00    0.7267676609E+00    0.6394812947E-03    0.3507955000E+07
    0.2705000000E+04    0.5044091605E+28    0.6939287147E+00    0.7207288366E+00    0.6442226365E-03    0.3507955000E+07
    0.2695000000E+04    0.5054916303E+28    0.6874078737E+00    0.7146110296E+00    0.6520841051E-03    0.3507955000E+07
    0.2685000000E+04    0.5037574521E+28    0.6808637217E+00    0.7084660511E+00    0.6544151947E-03    0.3507955000E+07
    0.2675000000E+04    0.5051899897E+28    0.6742336916E+00    0.7022350674E+00    0.6630030135E-03    0.3507955000E+07
    0.2665000000E+04    0.5035933099E+28    0.6675776506E+00    0.6959742562E+00    0.6656040941E-03    0.3507955000E+07
    0.2655000000E+04    0.5036988131E+28    0.6608618066E+00    0.6896517781E+00    0.6715844030E-03    0.3507955000E+07
    0.2645000000E+04    0.5039715671E+28    0.6540826551E+00    0.6832642355E+00    0.6779151500E-03    0.3507955000E+07
    0.2635000000E+04    0.5025441735E+28    0.6472742436E+00    0.6768436478E+00    0.6808411507E-03    0.3507955000E+07
    0.2625000000E+04    0.5030589638E+28    0.6403975275E+00    0.6703531287E+00    0.6876716111E-03    0.3507955000E+07
    0.2615000000E+04    0.5017575956E+28    0.6334891240E+00    0.6638271706E+00    0.6908403483E-03    0.3507955000E+07
    0.2605000000E+04    0.5025692864E+28    0.6265062062E+00    0.6572252434E+00    0.6982917799E-03    0.3507955000E+07
    0.2595000000E+04    0.5014443382E+28    0.6194880849E+00    0.6505844359E+00    0.7018121313E-03    0.3507955000E+07
    0.2585000000E+04    0.5026096936E+28    0.6123879627E+00    0.6438603825E+00    0.7100122254E-03    0.3507955000E+07
    0.2575000000E+04    0.5017129371E+28    0.6052479818E+00    0.6370929053E+00    0.7139980891E-03    0.3507955000E+07
    0.2565000000E+04    0.4994912785E+28    0.5980971971E+00    0.6303096877E+00    0.7150784703E-03    0.3507955000E+07
    0.2555000000E+04    0.5011643160E+28    0.5908281261E+00    0.6234060023E+00    0.7269070911E-03    0.3507955000E+07
    0.2545000000E+04    0.5004010327E+28    0.5834702589E+00    0.6164075896E+00    0.7357867272E-03    0.3507955000E+07
    0.2535000000E+04    0.4987833242E+28    0.5760494984E+00    0.6093397090E+00    0.7420760523E-03    0.3507955000E+07
    0.2525000000E+04    0.4993358213E+28    0.5685278166E+00    0.6021667150E+00    0.7521681747E-03    0.3507955000E+07
    0.2515000000E+04    0.4992131761E+28    0.5609264649E+00    0.5949093949E+00    0.7601351671E-03    0.3507955000E+07
    0.2505000000E+04    0.4982023525E+28    0.5532712123E+00    0.5875929262E+00    0.7655252644E-03    0.3507955000E+07
    0.2495000000E+04    0.4979698399E+28    0.5455520916E+00    0.5802083518E+00    0.7719120737E-03    0.3507955000E+07
    0.2485000000E+04    0.4966380639E+28    0.5377988808E+00    0.5727847206E+00    0.7753210739E-03    0.3507955000E+07
    0.2475000000E+04    0.4981508339E+28    0.5299563297E+00    0.5652696321E+00    0.7842551071E-03    0.3507955000E+07
    0.2465000000E+04    0.4963296725E+28    0.5221016024E+00    0.5577375216E+00    0.7854727389E-03    0.3507955000E+07
    0.2455000000E+04    0.4973884137E+28    0.5141777580E+00    0.5501342737E+00    0.7923844373E-03    0.3507955000E+07
    0.2445000000E+04    0.4968868282E+28    0.5062232471E+00    0.5424972202E+00    0.7954510853E-03    0.3507955000E+07
    0.2435000000E+04    0.4944062532E+28    0.4982855262E+00    0.5348723981E+00    0.7937720958E-03    0.3507955000E+07
    0.2425000000E+04    0.4974501419E+28    0.4902486047E+00    0.5271487522E+00    0.8036921489E-03    0.3507955000E+07
    0.2415000000E+04    0.4956209668E+28    0.4822208770E+00    0.5194306833E+00    0.8027727640E-03    0.3507955000E+07
    0.2405000000E+04    0.4969794775E+28    0.4741353317E+00    0.5116539912E+00    0.8085545335E-03    0.3507955000E+07
    0.2395000000E+04    0.4946923938E+28    0.4660735080E+00    0.5038973191E+00    0.8061823693E-03    0.3507955000E+07
    0.2385000000E+04    0.4960295022E+28    0.4579584610E+00    0.4960868443E+00    0.8115047006E-03    0.3507955000E+07
    0.2375000000E+04    0.4916872894E+28    0.4499160812E+00    0.4883439472E+00    0.8042379759E-03    0.3507955000E+07
    0.2365000000E+04    0.4973854312E+28    0.4417287862E+00    0.4804593127E+00    0.8187295081E-03    0.3507955000E+07
    0.2355000000E+04    0.4966351480E+28    0.4335390349E+00    0.4725702576E+00    0.8189751252E-03    0.3507955000E+07
    0.2345000000E+04    0.4920342869E+28    0.4254284424E+00    0.4647537995E+00    0.8110592530E-03    0.3525474523E+07
    0.2335000000E+04    0.4845531334E+28    0.4174203168E+00    0.4570161805E+00    0.8008125550E-03    0.3587402098E+07
    0.2325000000E+04    0.4820926094E+28    0.4093868097E+00    0.4492289352E+00    0.8033507100E-03    0.3678731686E+07
    0.2315000000E+04    0.4641366024E+28    0.4016664097E+00    0.4417199521E+00    0.7720400064E-03    0.3773222143E+07
    0.2305000000E+04    0.4365463928E+28    0.3944536924E+00    0.4346785007E+00    0.7212717237E-03    0.3867505420E+07
    0.2295000000E+04    0.4361028639E+28    0.3870229830E+00    0.4273864358E+00    0.7430709443E-03    0.3964119724E+07
    0.2285000000E+04    0.4200179941E+28    0.3797096239E+00    0.4201694047E+00    0.7313359128E-03    0.4064850555E+07
    0.2275000000E+04    0.4043266539E+28    0.3724967621E+00    0.4130107420E+00    0.7212861713E-03    0.4167481197E+07
    0.2265000000E+04    0.3880024431E+28    0.3653924667E+00    0.4059183838E+00    0.7104295436E-03    0.4271799324E+07
    0.2255000000E+04    0.3711406702E+28    0.3584044519E+00    0.3989001756E+00    0.6988014855E-03    0.4377227575E+07
    0.2245000000E+04    0.3538896224E+28    0.3515394291E+00    0.3919632791E+00    0.6865022793E-03    0.4482935549E+07
    0.2235000000E+04    0.3351882727E+28    0.3448382016E+00    0.3851500248E+00    0.6701227447E-03    0.4587536413E+07
    0.2225000000E+04    0.3191135343E+28    0.3382324268E+00    0.3783920969E+00    0.6605774841E-03    0.4689932242E+07
    0.2215000000E+04    0.3009048460E+28    0.3317937138E+00    0.3717643627E+00    0.6438712964E-03    0.4788526460E+07
    0.2205000000E+04    0.2847336584E+28    0.3254787183E+00    0.3652245258E+00    0.6314995550E-03    0.4881510262E+07
    0.2195000000E+04    0.2683011887E+28    0.3193185846E+00    0.3588074577E+00    0.6160133706E-03    0.4967617851E+07
    0.2185000000E+04    0.2544529098E+28    0.3132559001E+00    0.3524560655E+00    0.6062684489E-03    0.5046059012E+07
    0.2175000000E+04    0.2403451928E+28    0.3070054714E+00    0.3458374323E+00    0.6250428687E-03    0.5116591237E+07
    0.2165000000E+04    0.2252803028E+28    0.3002447632E+00    0.3385766870E+00    0.6760708229E-03    0.5178752982E+07
    0.2155000000E+04    0.2126082679E+28    0.2929207376E+00    0.3306305870E+00    0.7324025551E-03    0.5232988803E+07
    0.2145000000E+04    0.2043835108E+28    0.2856773423E+00    0.3227431138E+00    0.7243395331E-03    0.5280778759E+07
    0.2135000000E+04    0.1964619565E+28    0.2785869228E+00    0.3149990451E+00    0.7090419457E-03    0.5323244851E+07
    0.2125000000E+04    0.1892606407E+28    0.2716499156E+00    0.3074020116E+00    0.6937007210E-03    0.5360970652E+07
    0.2115000000E+04    0.1834658401E+28    0.2648330612E+00    0.2999181238E+00    0.6816854451E-03    0.5394604384E+07
    0.2105000000E+04    0.1780525933E+28    0.2581391678E+00    0.2925525443E+00    0.6693893357E-03    0.5424689403E+07
    0.2095000000E+04    0.1730396975E+28    0.2515669891E+00    0.2853057440E+00    0.6572178652E-03    0.5451659945E+07
    0.2085000000E+04    0.1690527020E+28    0.2450871415E+00    0.2781468727E+00    0.6479847600E-03    0.5475944688E+07
    0.2075000000E+04    0.1647144651E+28    0.2387238932E+00    0.2711041254E+00    0.6363248328E-03    0.5497872570E+07
    0.2065000000E+04    0.1611575580E+28    0.2324537574E+00    0.2641527709E+00    0.6270135815E-03    0.5517701490E+07
    0.2055000000E+04    0.1572655574E+28    0.2262972355E+00    0.2573166841E+00    0.6156521870E-03    0.5535647191E+07
    0.2045000000E+04    0.1544416673E+28    0.2202163704E+00    0.2505547299E+00    0.6080865147E-03    0.5551960182E+07
    0.2035000000E+04    0.1525587462E+28    0.2141773719E+00    0.2438301025E+00    0.6038998486E-03    0.5566894038E+07
    0.2025000000E+04    0.1488885468E+28    0.2082570064E+00    0.2372290909E+00    0.5920365509E-03    0.5580518246E+07
    0.2015000000E+04    0.1476285432E+28    0.2023600855E+00    0.2306462808E+00    0.5896920868E-03    0.5592997391E+07
    0.2005000000E+04    0.1443018928E+28    0.1965734450E+00    0.2241792557E+00    0.5786640539E-03    0.5604466138E+07
    0.1995000000E+04    0.1432872453E+28    0.1908050026E+00    0.2177257080E+00    0.5768442421E-03    0.5614998099E+07
    0.1985000000E+04    0.1409112581E+28    0.1851114283E+00    0.2113495713E+00    0.5693574257E-03    0.5624698846E+07
    0.1975000000E+04    0.1684322724E+28    0.1782806764E+00    0.2036923198E+00    0.6830751939E-03    0.5634492134E+07
    0.1965000000E+04    0.2289556651E+28    0.1689808770E+00    0.1932575374E+00    0.9299799358E-03    0.5646014212E+07
    0.1955000000E+04    0.2253398669E+28    0.1598173660E+00    0.1829662876E+00    0.9163511036E-03    0.5657979147E+07
    0.1945000000E+04    0.2221463709E+28    0.1507732523E+00    0.1728010049E+00    0.9044113628E-03    0.5668528677E+07
    0.1935000000E+04    0.2193189250E+28    0.1418339023E+00    0.1627464246E+00    0.8939350054E-03    0.5677861720E+07
    0.1925000000E+04    0.2168101676E+28    0.1329866003E+00    0.1527892468E+00    0.8847301993E-03    0.5686131582E+07
    0.1915000000E+04    0.2145799373E+28    0.1242202697E+00    0.1429178575E+00    0.8766330575E-03    0.5693476943E+07
    0.1905000000E+04    0.2125939992E+28    0.1155252391E+00    0.1331220941E+00    0.8695030651E-03    0.5700005811E+07
    0.1895000000E+04    0.2108229780E+28    0.1068930474E+00    0.1233930486E+00    0.8632191639E-03    0.5705826903E+07
    0.1885000000E+04    0.2092415662E+28    0.9831627961E-01    0.1137229006E+00    0.8576767816E-03    0.5711017790E+07
    0.1875000000E+04    0.2078278210E+28    0.8978842800E-01    0.1041047760E+00    0.8527851617E-03    0.5715656482E+07
    0.1865000000E+04    0.2065627031E+28    0.8130377257E-01    0.9453262414E-01    0.8484655430E-03    0.5719821337E+07
    0.1855000000E+04    0.2054295607E+28    0.7285728097E-01    0.8500111532E-01    0.8446491600E-03    0.5723543286E+07
    0.1845000000E+04    0.2044138292E+28    0.6444452087E-01    0.7550554990E-01    0.8412760096E-03    0.5726869357E+07
    0.1835000000E+04    0.2035027008E+28    0.5606158555E-01    0.6604178136E-01    0.8382935317E-03    0.5729862651E+07
    0.1825000000E+04    0.1513370682E+28    0.4983970921E-01    0.5892541752E-01    0.6221876343E-03    0.5850161411E+07
    0.1815000000E+04    0.1200838151E+28    0.4510697116E-01    0.5345187278E-01    0.4732738050E-03    0.5997073922E+07
    0.1805000000E+04    0.1056453229E+28    0.4110155010E-01    0.4879488966E-01    0.4005421060E-03    0.6044248768E+07
    0.1795000000E+04    0.9504546414E+27    0.3762628823E-01    0.4473776357E-01    0.3475261871E-03    0.6078199979E+07
    0.1785000000E+04    0.8658178408E+27    0.3456050474E-01    0.4114673932E-01    0.3065783489E-03    0.6105124671E+07
    0.1775000000E+04    0.7952436701E+27    0.3182294428E-01    0.3793118114E-01    0.2737560457E-03    0.6127468523E+07
    0.1765000000E+04    0.7347870070E+27    0.2935578583E-01    0.3502625692E-01    0.2467158458E-03    0.6146557364E+07
