t(yr),T_surf(K),phi(vol_frac),p_H2O(bar)
4.0978193283081055e-08,3275.023590092119,0.9751362635050377,0.5114330928368331
4.3585896492004395e-07,3275.023585685669,0.9751362633251934,0.5114330929730848
4.3995678424835205e-06,3275.023585644521,0.9751362615267521,0.5114330929743569
4.4036656618118286e-05,3275.023548063947,0.9751362435423399,0.5114330941363855
0.00044040754437446594,3275.0225765148807,0.9751360636982608,0.5114331241777235
0.004404135048389435,3275.0180817012624,0.9751342652709715,0.5114332631616808
0.04404137283563614,3274.9703343393285,0.9751162789512989,0.51143473953417
0.44041377305984497,3274.4937204674443,0.9749361642256179,0.5114494744558697
4.404137771576643,3269.7540281053784,0.9731107383688098,0.5115957866424224
44.04137774929404,3224.7672063128202,0.9527545537463784,0.5129647700945104
144.14137775078416,3127.195591943812,0.8905827474795254,0.5158133006816027
167.51028690114617,3107.0856850851933,0.8748519777099052,0.5163802605650818
190.87919605523348,3090.5841757332555,0.8611864392722978,0.523257715457894
214.09761914983392,3074.9953737847727,0.8481462502900919,0.5307472187354202
314.19761915132403,3013.0415393267444,0.7954997238199704,0.5633138847396473
414.29761914908886,2958.314760961196,0.7480450568246383,0.5962295253278094
514.397619150579,2909.6638728578628,0.7051125796990283,0.6293593774539692
614.4976191483438,2866.090797262857,0.6661572535086527,0.6625834409749615
714.5976191498339,2826.7928148920946,0.6306996127103806,0.6958125242949484
814.697619151324,2791.156829776768,0.5983216033762708,0.728978543084197
914.7976191490889,2758.7831401255726,0.5686900707286234,0.7619936224230334
1014.897619150579,2729.17948094577,0.5415019843707424,0.7947992966641424
1114.9976191483438,2702.0129342256923,0.5164852455511731,0.8273538328831269
1215.097619149834,2676.998210887543,0.49340439922413837,0.8596210667168395
1315.197619151324,2653.7866680178736,0.4720473771291187,0.89158253193551
1415.2976191490889,2631.9351189401204,0.45213134555479256,0.9233834910558825
1515.397619150579,2611.505637415648,0.4334769851791941,0.9550535202151705
1615.4976191483438,2592.365749175906,0.4159547204621908,0.9865744718054409
1715.597619149834,2574.4012312554746,0.3994425245921581,1.0179283511085262
1815.697619151324,2557.512037081861,0.3838263352561003,1.049096220798717
1915.7976191490889,2541.6104712197566,0.3690121568953627,1.0800601641467407
2015.897619150579,2526.6190874872273,0.35496406949568177,1.1108035270877272
2115.997619148344,2512.465131422791,0.34171085717757016,1.1413083603389287
2216.097619149834,2499.0897355494853,0.3292758060795884,1.1715578172810353
2316.197619151324,2486.4331360234155,0.31764451840280833,1.2015361492398495
2416.297619149089,2474.44713172814,0.3067789716243471,1.2312262667457121
2516.397619150579,2463.085548264894,0.29663070221921123,1.2606131046165912
2616.497619148344,2452.3081319238972,0.2871496952742653,1.2896796066789562
2716.597619149834,2442.075281678303,0.2782862309441669,1.3184120331621398
2816.697619151324,2432.354441870655,0.2699937464338035,1.3467954370183957
2916.797619149089,2423.1122105146997,0.2622286076305919,1.374816790994946
3016.897619150579,2414.3213708631415,0.25495081784360546,1.402462580360165
3116.997619148344,2405.955481094495,0.2481240324284256,1.4297188692561664
3217.097619149834,2397.9896686098236,0.24171424353901966,1.4565751950561356
3317.197619151324,2390.4002754296157,0.2356908228482616,1.4830202254167906
3417.297619149089,2383.1670606198218,0.23002558469117992,1.5090439477570954
3517.397619150579,2376.2705311765653,0.22469280007849463,1.5346369986623032
3617.497619148344,2369.692973343891,0.21966920599189715,1.559789656801388
3717.597619149834,2363.4169690423228,0.2149330993142325,1.5844949106079835
3817.697619151324,2357.4262700819468,0.21046476551243648,1.608745871981468
3917.797619149089,2351.7091916616064,0.2062462056062229,1.6325353664095916
4017.897619150579,2346.248634396888,0.20226076436938517,1.6558583428675246
4117.997619148344,2341.0155521555057,0.1984929784369628,1.6787118692053375
4218.097619149834,2335.91530562809,0.1949129476848329,1.7011954220960948
4318.197619151324,2331.007718418275,0.19150185543211742,1.7233518761741227
4418.297619149089,2326.2833609486133,0.18825018720973571,1.7451763954525923
4518.397619150579,2321.7351032187044,0.1851488562923536,1.7666656939476497
4618.497619148344,2317.3564454144107,0.1821896198904941,1.7878155276151049
4718.597619149834,2313.1393202003296,0.179364906704947,1.808621666688535
4818.697619151324,2309.0789998022715,0.17666755492179154,1.8290799480657083
4918.797619149089,2305.167767228345,0.1740907571442553,1.8491883668132876
5018.897619150579,2301.3986281907364,0.17162813483049755,1.868945020694593
5118.997619148344,2297.7678678754955,0.16927374779753823,1.888348202679602
5219.097619149834,2294.2696898977083,0.1670220928381658,1.9073961461098563
5319.197619151324,2290.8991051809785,0.16486793150250129,1.9260875408046114
5419.297619149089,2287.6506582362713,0.1628065560220654,1.9444207371853777
5519.397619150579,2284.5207277947793,0.16083338580055404,1.9623950091228606
5619.497619148344,2281.5026025592742,0.1589438938594123,1.980012196060836
5719.597619149834,2278.592672597984,0.15713385631369364,1.9972741171298192
5819.697619151324,2275.7879267383873,0.1553996006143274,2.0141802025982662
5919.797619149089,2273.0832983958753,0.15373751590355766,2.0307317585666844
6019.897619150579,2270.4766517814437,0.15214423148997183,2.0469300362236735
6119.997619148344,2267.962633529662,0.1506163614546389,2.062777709787674
6220.097619149834,2265.5392309704166,0.1491510235506213,2.0782763522166303
6320.197619151324,2263.2020436516204,0.14774536634676544,2.093427472194116
6420.297619149089,2260.948916476011,0.14639665764042517,2.1082336723774775
6520.397619150579,2258.775271750336,0.14510231254029293,2.1226984794674064
6620.497619148344,2256.6785512507563,0.14385967830305305,2.1368274006282615
6720.597619149834,2254.6561629143985,0.14266651049362972,2.150623072505707
6820.697619151324,2252.7054751631954,0.14152068232182313,2.1640884469398975
6920.797619149089,2250.824274309777,0.1404200063216822,2.177228833964246
7020.897619150579,2249.0099300405814,0.13936266639934677,2.1900463685781046
7120.997619148344,2247.259853744296,0.1383466189694293,2.202546619736391
7221.097619149834,2245.5715807488186,0.1373702205728465,2.214733363649646
7321.197619151324,2243.9425965314813,0.13643174762393817,2.226611210354802
7421.297619149089,2242.3698578741314,0.1355296248416042,2.2381838351479737
7521.397619150579,2240.856982387552,0.13466230170094373,2.2494568094762437
7621.497619148344,2239.3953138844554,0.13382833086525678,2.2604345256381277
7721.597619149834,2237.9850373569816,0.13302634466211255,2.271121654017113
7821.697619151324,2236.624502039973,0.13225492853213258,2.281524936810134
7921.797619149089,2235.3114498500117,0.131512758861237,2.2916496201630046
8021.897619150579,2234.044104844779,0.13079860674282187,2.301501411175412
8121.997619148344,2232.821852666746,0.13011138824665203,2.311085035433389
8222.097619149834,2231.6423729811536,0.12945004496906595,2.320405083958964
8322.197619151324,2230.504321294166,0.12881349319777394,2.329467476055145
8422.297619149089,2229.406632518912,0.1282006808546473,2.338278074434114
8522.397619150579,2228.346576178905,0.12761072311563088,2.3468412397003227
8622.497619148344,2227.323495106112,0.12704268719163356,2.3551626507816628
8722.597619149834,2226.33783212689,0.12649569593266402,2.363247493406291
8822.697619151324,2225.386220402878,0.12596897952730302,2.371100389707364
8922.797619149089,2224.467182968186,0.1254617086455244,2.3787269761531418
9022.897619150579,2223.5810864234486,0.12497312406791546,2.3861325567124263
9122.997619148344,2222.7256463402036,0.12450249819586927,2.3933221947487073
9223.097619149834,2221.9007335752744,0.124049078780352,2.4003018298213226
9323.197619151324,2221.103790631028,0.12361224776866339,2.4070751179985557
9423.297619149089,2220.3350779226494,0.12319136033421238,2.4136480426273117
9523.397619150579,2219.594040424621,0.122785883724815,2.4200243816374893
9623.497619148344,2218.877905685271,0.12239508331973555,2.426210698257235
9723.597619149834,2218.187308356317,0.1220184833182835,2.432210530337634
9823.697619151324,2217.5205963329336,0.12165555102029736,2.4380294635848587
9923.797619149089,2216.8756968977877,0.12130560131724713,2.443673568440401
10023.897619150579,2216.2561643234267,0.12096838978685587,2.4491441899524427
10123.997619148344,2215.657118916049,0.12064334613377291,2.454447624956181
10224.097619149834,2215.079060416595,0.12032995051929865,2.459588299433631
10324.197619151324,2214.5187052988363,0.12002789527805961,2.4645702746386307
10424.297619149089,2213.982000993408,0.11973660451575317,2.469398002928364
10524.397619150579,2213.461922120717,0.11945585950101231,2.4740752678087508
10624.497619148344,2212.959512218814,0.11918493525788629,2.4786093329234817
10724.597619149834,2212.4748953508224,0.11892367404529341,2.4830029216812854
10824.697619151324,2212.0063547091972,0.1186716181240989,2.48725993272589
10924.797619149089,2211.5549151833047,0.1184285005501344,2.491384297794941
11024.897619150579,2211.118276245978,0.11819401424566485,2.4953788322491697
11124.997619148344,2210.6970144299125,0.1179677496248502,2.4992486016926243
11225.097619149834,2210.2902165010887,0.1177495520525696,2.502995878253086
11325.197619151324,2209.8977315900142,0.11753898771811166,2.506624639758623
11425.297619149089,2209.518734748545,0.11733582869876957,2.510139175041835
11525.397619150579,2209.1531756917325,0.11713988147258134,2.513541316753434
11625.497619148344,2208.799320664603,0.11695078056749224,2.516835005977078
11725.597619149834,2208.4583424192324,0.11676832042756423,2.520024087044881
11825.697619151324,2208.12927687537,0.11659228325094576,2.523111110853332
11925.797619149089,2207.8110614132847,0.11642237315746555,2.526098933371232
12025.897619150579,2207.5040042475243,0.11625837166670148,2.5289919817369406
12125.997619148344,2207.2075789786804,0.1161000986695527,2.5317925251020292
12226.097619149834,2206.9213025009344,0.11594731131175533,2.534502951383816
12326.197619151324,2206.644669453729,0.11579987240476527,2.5371254553810374
12426.297619149089,2206.3776536185615,0.11565756850690952,2.53966355182049
12526.397619150579,2206.1203657026526,0.11552023422963698,2.5421196882199406
12626.497619148344,2205.8710110949482,0.11538762771490543,2.5444962895914562
12726.597619149834,2205.6308230282225,0.11525961748740364,2.5467958912108277
12826.697619151324,2205.3984236911983,0.11513606923058284,2.5490207577548336
12926.797619149089,2205.1742531774753,0.1150168380228761,2.551172834706116
13026.897619150579,2204.95761515059,0.11490169359232201,2.553255540897415
13126.997619148344,2204.7488786415156,0.11479050629910395,2.5552702104925213
13227.097619149834,2204.546764319454,0.11468313137157547,2.5572198293017188
13327.197619151324,2204.3517277331925,0.11457949567720427,2.5591053860974715
13427.297619149089,2204.163265629212,0.11447943737997449,2.560929522397069
13527.397619150579,2203.9812165098047,0.1143828233599721,2.5626941792903315
13627.497619148344,2203.8057753088196,0.11428948166392723,2.5644012957016624
13727.597619149834,2203.6354806823083,0.11419936662499496,2.5660522275612085
13827.697619151324,2203.4720821454657,0.11411234573372,2.5676491736283857
13927.797619149089,2203.313149580031,0.11402835181213483,2.569193168587107
14027.897619150579,2203.160634402765,0.11394722180168068,2.570686881122887
14127.997619148344,2203.0123442260124,0.11386885144692555,2.5721320546922137
14228.097619149834,2202.869970085371,0.1137931761642692,2.5735293671797326
14328.197619151324,2202.7316345330896,0.11372006433092346,2.5748807528898583
14428.297619149089,2202.5983485307174,0.11364940678234266,2.5761885736295635
14528.397619150579,2202.4698761196123,0.11358122098838623,2.577452320070571
14628.497619148344,2202.3453971113313,0.11351532106733782,2.5786752690682744
14728.597619149834,2202.2251943695123,0.11345166322373822,2.5798582055853854
14828.697619151324,2202.1092354086422,0.11339016663204958,2.5810023549992964
14928.797619149089,2201.9965029450655,0.11333073832161143,2.5821092938779966
15028.897619150579,2201.8883218220185,0.11327335308645645,2.5831793112518504
15128.997619148344,2201.783850140443,0.11321790143429225,2.58421412730541
15229.097619149834,2201.6822189748136,0.11316428242296002,2.585215584123022
15329.197619151324,2201.58417812715,0.11311251621617993,2.5861833575655786
15429.297619149089,2201.4896697786585,0.11306253287371432,2.5871188698033407
15529.397619150579,2201.3985137752593,0.11301425006582548,2.588023287641413
15629.497619148344,2201.3102589676027,0.11296759873278814,2.588898033374174
15729.597619149834,2201.225096938562,0.11292247585136271,2.5897448413079966
15829.697619151324,2201.142955567534,0.11287889325702978,2.590563426867465
15929.797619149089,2201.0629005320784,0.1128367747770201,2.5913552386693
16029.897619150579,2200.985883083658,0.11279603271146542,2.592121722080082
16129.997619148344,2200.9110231784116,0.1127566398334083,2.592863470349163
16230.097619149834,2200.839542555365,0.11271855645807037,2.593581030811087
16330.197619151324,2200.769463520727,0.11268174668607848,2.594274899929892
16430.29761914909,2200.7026020181374,0.11264619018127944,2.594945453932333
16530.39761915058,2200.6374782924795,0.11261179251125371,2.595594525313805
16630.497619148344,2200.5740583119937,0.11257855855306295,2.5962221965899785
16730.597619149834,2200.5137070948917,0.11254640804386275,2.596829627259951
16830.697619151324,2200.454314100131,0.11251534143577878,2.5974170672540877
16930.79761914909,2200.397697325601,0.11248534802329468,2.597984505186204
17030.89761915058,2200.343066201143,0.1124563381587553,2.598533537140054
17130.997619148344,2200.289533814471,0.11242828963573913,2.5990648628148674
17231.097619149834,2200.2382105368183,0.11240114713926733,2.59958157599288
17331.197619151324,2200.188166201368,0.11237484295593966,2.6000889622341585
17431.29761914909,2200.140754841794,0.11234950681450763,2.600585286810838
17531.39761915058,2200.094084363472,0.11232498327670347,2.6010718466536957
17631.497619148344,2200.0492462827024,0.1123012516302381,2.6015484587897477
17731.597619149834,2200.0063284912385,0.1122783269664488,2.6020146274814446
17831.697619151324,2199.9638894508066,0.11225618667662694,2.602470281539397
17931.79761914909,2199.924152983707,0.11223480764727153,2.602915231710538
18031.89761915058,2199.8851272807005,0.11221410012056302,2.6033505208812846
18131.997619148344,2199.84696599711,0.11219412941636056,2.603775001474321
18232.097619149834,2199.81079555711,0.11217482766293395,2.6041892533519873
18332.197619151324,2199.775473653773,0.11215615092873643,2.6045937112860518
18432.29761914909,2199.741971311784,0.11213810412110518,2.604987898320526
18532.39761915058,2199.7090902605514,0.11212065378401048,2.605372317909985
18632.497619148344,2199.677252474215,0.1121037902509386,2.605746948604329
18732.597619149834,2199.646996098667,0.1120875558878218,2.606110739460513
18832.697619151324,2199.6170639555576,0.11207183317636914,2.606465579640264
18932.79761914909,2199.5883569780344,0.11205662510703594,2.60681122618335
19032.89761915058,2199.5613237792595,0.11204197208211102,2.607146807931787
19132.997619148344,2199.534500598619,0.11202780233310061,2.607473555473775
19233.097619149834,2199.508881247567,0.11201413751897953,2.6077907863358107
19333.197619151324,2199.4841468985524,0.11200089495972272,2.6080999532037614
19433.29761914909,2199.4604087303283,0.11198812643373587,2.60839991975246
19533.39761915058,2199.4369767392836,0.1119757933906832,2.6086913425043914
19633.497619148344,2199.4149921746252,0.11196385751632981,2.608974859983785
19733.597619149834,2199.3929053242737,0.11195234160066417,2.60925002813776
19833.697619151324,2199.3722231797806,0.11194120704311204,2.609517381151652
19933.79761914909,2199.3524134238182,0.11193046155740688,2.6097766846987196
20000.0,2199.3394235474434,0.11192353654577546,2.609944398050248
20000.0,2199.3394235474434,0.11192353654577546,2.609944398050248
20000.00000004098,2199.3394342362835,0.1119235365457715,2.609944397710471
20000.00000043586,2199.3389697968883,0.1119235365457306,2.609944412479691
20000.000004399568,2199.3394502699334,0.11192353654532108,2.609944397211532
20000.000044036657,2199.338969072141,0.11192353654123235,2.6099444126116085
20000.000440407544,2199.339449545175,0.11192353650027478,2.6099443983246506
20000.00440413505,2199.3389683473715,0.1119235360914052,2.6099444235219362
20000.044041372836,2199.3394320618413,0.11192353199585127,2.6099445078832377
20000.44041377306,2199.339358525219,0.11192349106429698,2.609945500780412
20004.404137771577,2199.3385983473836,0.11192308209735781,2.6099554232257196
20044.041377749294,2199.3310022437504,0.11191902641514527,2.6100539325721606
20440.41377754882,2199.259848326516,0.11188125462985977,2.610979551617403
24197.20073287934,2198.841590186296,0.11165789997642572,2.616657673689701
28774.391045488417,2198.708876148387,0.11158809100437966,2.6185380802359703
36337.53005922586,2198.5807401600428,0.11152228583428156,2.620317853840715
42875.459530401975,2198.4186538518024,0.1114374893413539,2.6226123683444698
49413.38900157809,2198.3245233970947,0.11138970123725196,2.6239069758985862
56099.992618985474,2198.150148607814,0.11129864945506537,2.6263761081217702
62786.59623639658,2198.0713648648743,0.11125884020995774,2.6274545234127586
70011.99662103504,2197.8595103427474,0.11114786290767159,2.630466035505323
75842.3217482008,2197.8173018016264,0.11112763126622457,2.6310257494369274
81672.64687536284,2197.658706809787,0.11104458306660157,2.633290508509091
89044.7863173373,2197.5741968473435,0.11100245086639533,2.6344351008283073
94947.18952606991,2197.391133559343,0.11090638398450313,2.6370544722282427
100849.59273480251,2197.3280977347194,0.11087501181675508,2.637910366789304
108019.42490769923,2197.138363820591,0.11077600488207723,2.64062443395819
114095.89815864712,2197.083932346701,0.11074941275659407,2.6413485974071973
120172.37140959501,2196.911944242784,0.11065924870281413,2.643824009335991
126732.16783417389,2196.854328320833,0.11063129519458488,2.6445992427005316
133153.91483558342,2196.65591365301,0.1105271917364756,2.647459603171273
139286.56860796362,2196.6166979970967,0.11050885263820129,2.6479795947413223
145545.16992229596,2196.4340186192635,0.1104130119104238,2.6506218568904254
151930.9177670963,2196.389086293676,0.1103917957162684,2.65123010975946
158068.45749909058,2196.2016482244844,0.1102933684263594,2.6539487629062113
164200.34904463217,2196.1586157342786,0.11027294985928113,2.654528998575853
170575.65364498273,2195.9792477474434,0.11017923739486943,2.657128777973523
177287.7231036611,2195.9270782618164,0.1101539839607515,2.6578439396449896
183827.804321412,2195.7339418732427,0.1100527310118668,2.6606578934821465
190132.2522447221,2195.698068743765,0.11003627799945327,2.6611474481609636
196314.78765387833,2195.521044399843,0.10994390917411068,2.663724302392594
203081.88618092984,2195.459646932446,0.10991383099563078,2.6645588376802913
210196.41361899674,2195.2609261666153,0.10980999304563306,2.6674616230831463
215879.19155384228,2195.2260608696447,0.10979391821475572,2.6679166011905444
221561.96948869154,2195.0867672841146,0.10972142356854357,2.669953654603107
229152.29903136194,2195.0062807657887,0.10968139493698642,2.6710742514130343
234824.1978069879,2194.8539871739513,0.1096020248554137,2.6733081962319316
240496.09658261016,2194.785735846623,0.10956780703224317,2.674273027220078
248952.61705764756,2194.5919934740728,0.10946725040816851,2.677113513778932
254526.3909212798,2194.5562173500875,0.10945038176460035,2.6775891079288217
