z(m),p_tot(bar),T(K),p_H2O(bar),p_CO2(bar),p_CO(bar),p_H2(bar),p_CH4(bar),p_O2(bar)
3.647942776320581906e+05,1.000003900835915554e-06,6.148287019823465016e+02,3.841102642398680752e-09,9.433601343286640908e-07,4.819234235017514867e-08,4.610321513816341028e-09,8.612840683468035803e-19,4.057646481585675819e-37
3.647942247794340365e+05,1.000007801687108875e-06,6.148287019857177711e+02,3.841117625993342312e-09,9.433638142217315895e-07,4.819253034068157068e-08,4.610339497841067980e-09,8.612941473041677914e-19,4.057646484039996305e-37
3.647941190741843311e+05,1.000015603420051171e-06,6.148287019924604238e+02,3.841147593300005966e-09,9.433711740366922827e-07,4.819290632316614768e-08,4.610375466031423002e-09,8.613143055337527299e-19,4.057646488948518672e-37
3.647940133689345676e+05,1.000023405214104565e-06,6.148287019992031901e+02,3.841177560841422650e-09,9.433785339093025676e-07,4.819328230859581192e-08,4.610411434503500851e-09,8.613344642357512393e-19,4.057646493857109529e-37
3.647939076636848622e+05,1.000031207069269692e-06,6.148287020059459564e+02,3.841207528617567549e-09,9.433858938395626561e-07,4.819365829697076854e-08,4.610447403257327171e-09,8.613546234101704455e-19,4.057646498765861586e-37
3.647928506111877505e+05,1.000109228982176186e-06,6.148287020733769168e+02,3.841507219290062650e-09,9.434594963130262970e-07,4.819741834270650525e-08,4.610807106291831487e-09,8.615562411408385654e-19,4.057646547854621660e-37
3.647917935586906387e+05,1.000187257006795971e-06,6.148287021408131068e+02,3.841806933438483685e-09,9.435331045520134521e-07,4.820117868297932127e-08,4.611166837502887621e-09,8.617579061271874919e-19,4.057646596946994978e-37
3.647907365061935270e+05,1.000265291143607833e-06,6.148287022082545263e+02,3.842106671064844011e-09,9.436067185569761194e-07,4.820493931781232470e-08,4.611526596892532091e-09,8.619596183802188109e-19,4.057646646043380784e-37
3.647896794536964153e+05,1.000343331393092250e-06,6.148287022757012892e+02,3.842406432170793852e-09,9.436803383283676734e-07,4.820870024722844500e-08,4.611886384463173648e-09,8.621613779111451903e-19,4.057646695143351435e-37
3.647791089287252980e+05,1.001124070190726516e-06,6.148287029504581369e+02,3.845405335021148798e-09,9.444168532956696104e-07,4.824632574856646735e-08,4.615485810605170610e-09,8.641815759422664191e-19,4.057647186356044723e-37
3.647685384037541808e+05,1.001905420784685035e-06,6.148287036257415821e+02,3.848406587873877673e-09,9.451539454049435622e-07,4.828398073372651227e-08,4.619088057274841542e-09,8.662065139772031163e-19,4.057647677952187035e-37
3.647579678787830635e+05,1.002687383656292162e-06,6.148287043015520794e+02,3.851410192577885486e-09,9.458916151102504340e-07,4.832166522590447113e-08,4.622693126691158822e-09,8.682362031522469031e-19,4.057648169932024767e-37
3.647473973538118880e+05,1.003469959287256383e-06,6.148287049778899700e+02,3.854416150983439607e-09,9.466298628660122848e-07,4.835937924831543253e-08,4.626301021074947711e-09,8.702706546299329886e-19,4.057648662295674852e-37
3.646416921041019959e+05,1.011329523616337602e-06,6.148287117703702052e+02,3.884605596778726808e-09,9.540442334348094754e-07,4.873814875588832126e-08,4.662535827970227553e-09,8.908795706677851877e-19,4.057653607122115755e-37
3.645359868543921039e+05,1.019250896581654659e-06,6.148287186160522424e+02,3.915032458965437011e-09,9.615169115755398969e-07,4.911989695880036645e-08,4.699055587436889990e-09,9.119771925787447727e-19,4.057658590684663314e-37
3.644302816046822118e+05,1.027234566232841006e-06,6.148287255153546766e+02,3.945698612258561183e-09,9.690483576929023134e-07,4.950464737728832263e-08,4.735862549458297002e-09,9.335751249887080763e-19,4.057663613288274970e-37
3.643245763549722615e+05,1.035281024460334295e-06,6.148287324686989450e+02,3.976605946127050141e-09,9.766390358148411780e-07,4.989242371668624342e-08,4.772958981723982156e-09,9.556852483781587214e-19,4.057668675239837568e-37
3.642188711052623694e+05,1.043390767061499784e-06,6.148287394765102363e+02,4.007756365048045196e-09,9.842894136549251034e-07,5.028324987061414364e-08,4.810347169934268968e-09,9.783197257452654648e-19,4.057673776848915727e-37
3.639755119969081716e+05,1.062304653318360318e-06,6.148287558195759175e+02,4.080406706443941035e-09,1.002131949887864028e-06,5.119475124290102393e-08,4.897545480119023468e-09,1.032491403986398782e-18,4.057685674445043268e-37
3.637321528885539738e+05,1.081562801452721112e-06,6.148287724589067693e+02,4.154379411668296259e-09,1.020299247761191789e-06,5.212284336050327981e-08,4.986330918268069964e-09,1.089666898179850763e-18,4.057697787754755237e-37
3.635331935638772557e+05,1.097567550896954641e-06,6.148287862863433020e+02,4.215855459937510225e-09,1.035397431048671114e-06,5.289414711884759077e-08,5.060117268359580216e-09,1.138758834591313021e-18,4.057707854053532462e-37
3.633342342392005958e+05,1.113810101787207157e-06,6.148288003184002264e+02,4.278244941542880426e-09,1.050719945847999187e-06,5.367691105831856210e-08,5.134999938156499266e-09,1.190065548113291651e-18,4.057718069340041651e-37
3.631352749145239359e+05,1.130294001753284558e-06,6.148288145581179833e+02,4.341561483829818551e-09,1.066270138838063453e-06,5.447130614742710699e-08,5.210995282720503523e-09,1.243687096492111773e-18,4.057728435829096010e-37
3.629363155898472178e+05,1.147022851554232268e-06,6.148288290085822609e+02,4.405818918236281919e-09,1.082051406817543597e-06,5.527750591511581916e-08,5.288119902036713990e-09,1.299728064011196704e-18,4.057738955767946084e-37
3.627373562651705579e+05,1.164000305888154850e-06,6.148288436729247906e+02,4.471031283404379613e-09,1.098067197468859876e-06,5.609568648978595643e-08,5.366390644746146121e-09,1.358297766583556503e-18,4.057749631437819104e-37
3.625383969404938980e+05,1.181230074201382560e-06,6.148288585543240288e+02,4.537212828288781567e-09,1.114321010121504176e-06,5.692602663829400373e-08,5.445824611875965992e-09,1.419510466107554859e-18,4.057760465153593245e-37
3.621404782911405200e+05,1.216461669252597395e-06,6.148288889812441766e+02,4.672541523645925755e-09,1.147556961663523340e-06,5.862391415557752764e-08,5.608251908300089634e-09,1.550347988241625121e-18,4.057782616157978276e-37
3.617425596417871420e+05,1.252748438830937246e-06,6.148289203157319207e+02,4.811923323554331781e-09,1.181788318819613256e-06,6.037265289322466044e-08,5.775543792851916322e-09,1.693262418405244324e-18,4.057805428002764674e-37
3.613446409924337640e+05,1.290122115071169412e-06,6.148289525849696702e+02,4.955480119877321723e-09,1.217045016297970079e-06,6.217377209712269514e-08,5.947846554350132530e-09,1.849370120814605736e-18,4.057828920488484990e-37
3.609467223430804443e+05,1.328615388274042046e-06,6.148289858169578110e+02,5.103337485260381302e-09,1.253357892698470433e-06,6.402884718962458895e-08,6.125310898666586603e-09,2.019890802167450071e-18,4.057853114011559655e-37
3.605488036937270663e+05,1.368261935960004460e-06,6.148290200405383530e+02,5.255624784753069019e-09,1.290758717920663460e-06,6.593950116973313051e-08,6.308092082648731625e-09,2.206157091761399871e-18,4.057878029582145202e-37
3.601508850443736883e+05,1.409096452811953957e-06,6.148290552854211910e+02,5.412475290847148148e-09,1.329280221410426066e-06,6.790740605613168649e-08,6.496350052139299813e-09,2.409625010995139055e-18,4.057903688843100038e-37
3.597529663950203103e+05,1.451154681518076698e-06,6.148290915822099123e+02,5.574026301973649728e-09,1.368956121255730796e-06,6.993428437359622353e-08,6.690249584144165275e-09,2.631885414854932196e-18,4.057930114089203291e-37
3.590959123914991505e+05,1.523379510124104616e-06,6.148291539033444906e+02,5.851451239546314424e-09,1.437089876454036645e-06,7.341495750151254008e-08,7.023224925964303572e-09,3.044722452504441978e-18,4.057975486305028097e-37
3.584388583879779908e+05,1.599214171576162955e-06,6.148292193265242531e+02,6.142742252206503995e-09,1.508628990376618131e-06,7.706959664173375176e-08,7.372842302082177650e-09,3.522416203745821825e-18,4.058023117471500971e-37
3.577818043844567728e+05,1.678839843169135886e-06,6.148292880068037221e+02,6.448595301800710563e-09,1.583744377750057748e-06,8.090693316237741337e-08,7.739936950824944652e-09,4.075171176296023301e-18,4.058073120556278146e-37
3.571247503809356131e+05,1.762446833319465896e-06,6.148293601070200793e+02,6.769741428322160280e-09,1.662615567198692126e-06,8.493613848468650441e-08,8.125386203050146441e-09,4.714799875240206993e-18,4.058125614203056855e-37
3.564676963774143951e+05,1.850235043647713013e-06,6.148294357981856137e+02,7.106948525303825191e-09,1.745431137152686187e-06,8.916684635227503799e-08,8.530111611992640005e-09,5.454976566218799160e-18,4.058180723017974595e-37
3.558106423738932353e+05,1.942414454570401249e-06,6.148295152598994946e+02,7.461023205564477621e-09,1.832389173933688894e-06,9.360917623339179363e-08,8.955081191444645486e-09,6.311531145331648286e-18,4.058238577870828042e-37
3.551535883703720756e+05,2.039205635555275945e-06,6.148295986807809186e+02,7.832812761745860899e-09,1.923697753106824092e-06,9.827375791181851604e-08,9.401311767584649052e-09,7.302789463412693502e-18,4.058299316211854136e-37
3.544965343668508576e+05,2.140840281314933849e-06,6.148296862589238572e+02,8.223207226542525294e-09,2.019575445301748159e-06,1.031717573278639919e-07,9.869871450328947814e-09,8.449967458897652254e-18,4.058363082403560498e-37
3.536378690512077883e+05,2.281367310551390585e-06,6.148298073230512273e+02,8.762994101378218780e-09,2.152142515124334131e-06,1.099440678465737494e-07,1.051773346887894216e-08,1.022546501619917102e-17,4.058451231583400325e-37
3.527792037355646607e+05,2.431158129035352358e-06,6.148299363349090072e+02,9.338365600790245061e-09,2.293448638729254255e-06,1.171628219239851237e-07,1.120830276894798797e-08,1.237462143594324948e-17,4.058545169750035864e-37
3.519205384199215914e+05,2.590826016216155787e-06,6.148300738184807415e+02,9.951677615920217682e-09,2.444072357012630129e-06,1.248575750488558932e-07,1.194440652377369506e-08,1.497619846151277110e-17,4.058645278845808082e-37
3.510618731042784639e+05,2.761025022919556162e-06,6.148302203324415132e+02,1.060544267672387723e-08,2.604630672779348979e-06,1.330598476027596327e-07,1.272905984259800349e-08,1.812558558011225945e-17,4.058751966140001774e-37
3.502032077886353945e+05,2.942452693187169733e-06,6.148303764724639677e+02,1.130234041127469860e-08,2.775781618403404296e-06,1.418032560358656959e-07,1.356547831468662120e-08,2.193831579203934618e-17,4.058865665915930563e-37
3.493445424729922670e+05,3.135852968575113327e-06,6.148305428736787235e+02,1.204522870652782627e-08,2.958226995611669271e-06,1.511236528364414938e-07,1.445709139392043198e-08,2.655432587997484116e-17,4.058986841273374249e-37
3.484858771573491977e+05,3.342019287187974523e-06,6.148307202132989460e+02,1.283715561778249658e-08,3.152715298971812461e-06,1.610592758857652011e-07,1.540755668047132192e-08,3.214311906676615597e-17,4.059115986052948521e-37
3.476272118417060701e+05,3.561797890557161021e-06,6.148309092134202274e+02,1.368137207728913561e-08,3.360044835450758455e-06,1.716509078302982097e-07,1.642077515990521873e-08,3.891002148202438187e-17,4.059253626888501764e-37
3.467685465260630008e+05,3.796091352360103704e-06,6.148311106440074809e+02,1.458134545587624817e-08,3.581067053247228299e-06,1.829420461457686852e-07,1.750090746412649136e-08,4.710376452076369423e-17,4.059400325398503154e-37
3.456816205751249217e+05,4.114992444173612639e-06,6.148313847349049865e+02,1.580631932547792744e-08,3.881904409755745935e-06,1.983106235854643461e-07,1.897109144692495125e-08,5.999870686407526237e-17,4.059599949625017319e-37
3.445946946241868427e+05,4.460800008351919059e-06,6.148316818549340041e+02,1.713465213166753195e-08,4.208124151828600280e-06,2.149758907055878453e-07,2.056531360963296150e-08,7.642953543280645392e-17,4.059816357272852363e-37
3.435077686732488219e+05,4.835793994693379009e-06,6.148320039473525185e+02,1.857510296115276184e-08,4.561877083227018684e-06,2.330477247965828855e-07,2.229408361125740320e-08,9.736739278255800147e-17,4.060050966491551671e-37
3.424208427223107428e+05,5.242448372348879861e-06,6.148323531200936714e+02,2.013717643175969581e-08,4.945497036835735396e-06,2.526453536447304636e-07,2.416880531260372985e-08,1.240505751590199462e-16,4.060305315943580590e-37
3.413339167713727220e+05,5.683447710167627118e-06,6.148327316597785739e+02,2.183118642974347453e-08,5.361516515788639469e-06,2.738981546253777770e-07,2.620185316580766368e-08,1.580581390148776390e-16,4.060581075119574500e-37
3.402469908204346430e+05,6.161705179811942978e-06,6.148331420469262412e+02,2.366832532107182065e-08,5.812683676763883033e-06,2.969465223713522194e-07,2.840665515423126966e-08,2.014038182674284240e-16,4.060880055542307056e-37
3.391600648694966221e+05,6.680382104223326070e-06,6.148335869724636495e+02,2.566073910913093428e-08,6.301980771085501827e-06,3.219428109257846298e-07,3.079778284625308689e-08,2.566558648313985025e-16,4.061204222944017515e-37
3.380731389185585431e+05,7.242909184620201761e-06,6.148340693556469887e+02,2.782160905228474353e-08,6.832644169266410548e-06,3.490523567993485281e-07,3.339104917506755227e-08,3.270899779712087168e-16,4.061555710497040404e-37
3.369862129676205222e+05,7.853009550714342850e-06,6.148345923635151848e+02,3.016524029925496963e-08,7.408186105481913848e-06,3.784545899069753260e-07,3.620361460931395182e-08,4.168844712668215864e-16,4.061936833192637359e-37
3.358992870166824432e+05,8.514723791371814842e-06,6.148351594320072309e+02,3.270715814884180779e-08,8.032418290291235783e-06,4.103442399635976295e-07,3.925410243676890105e-08,5.313693587984891217e-16,4.062350103470758020e-37
3.346403262493566144e+05,9.351475774037338649e-06,6.148358762488327329e+02,3.592149475881478326e-08,8.821773375513993623e-06,4.506694192410804610e-07,4.311148381957297272e-08,7.038770364264339206e-16,4.062872567494969983e-37
3.333813654820307274e+05,1.027081675774978986e-05,6.148366635182624123e+02,3.945312651723713199e-08,9.689039264547335778e-06,4.949748038541784083e-07,4.734956189855784183e-08,9.324810288437513167e-16,4.063446458782536375e-37
3.321224047147048404e+05,1.128093383129821009e-05,6.148375281946838413e+02,4.333351407383912446e-08,1.064193928717240299e-05,5.436549605386878285e-07,5.200606827782783683e-08,1.235451970307159194e-15,4.064076869531441820e-37
3.308634439473789535e+05,1.239082915211326090e-05,6.148384779218480389e+02,4.759725160660757840e-08,1.168896567067331708e-05,5.971437387109660173e-07,5.712248948534902573e-08,1.637020382707298894e-15,4.064769399978812092e-37
3.296044831800531247e+05,1.361040143119924413e-05,6.148395211014781125e+02,5.228238039090023909e-08,1.283945640860103923e-05,6.559181979769720207e-07,6.274444206101064284e-08,2.169323598519361387e-15,4.065530209638068355e-37
3.283455224127272377e+05,1.495053559724607970e-05,6.148406669687320800e+02,5.743073390592475668e-08,1.410367984530083371e-05,7.205029299328245307e-07,6.892208523150811095e-08,2.874989525994086905e-15,4.066366073801029478e-37
3.270865616454013507e+05,1.642320146398044874e-05,6.148419256752047204e+02,6.308831766892048765e-08,1.549292775356052291e-05,7.914748139946973341e-07,7.571057494574349214e-08,3.810565807755862575e-15,4.067284445849534045e-37
3.258276008780755219e+05,1.804156230811315370e-05,6.148433083802257215e+02,6.930572731262560786e-08,1.701961776131102628e-05,8.694682510153892366e-07,8.317056342303980625e-08,5.051071281595303962e-15,4.068293526006961980e-37
3.245686401107496349e+05,1.982009435694194092e-05,6.148448273512831292e+02,7.613860878009111138e-08,1.869740606981279229e-05,9.551809228701971975e-07,9.136874878282045306e-08,6.696037428521608703e-15,4.069402337206441577e-37
3.233096793434237479e+05,2.177471828568873204e-05,6.148464960744892096e+02,8.364816490662434387e-08,2.054131150105162608e-05,1.049380131070753393e-06,1.003784797821989587e-07,8.877528041260409681e-15,4.070620808851452576e-37
3.220507185760979191e+05,2.392294393587737783e-05,6.148483293760929200e+02,9.190171309504997670e-08,2.256785201698599544e-05,1.152909772834321615e-06,1.102804211912285379e-07,1.177078543003587636e-14,4.071959869313623580e-37
3.207917578087720321e+05,2.628402958855010344e-05,6.148503435561469814e+02,1.009732992721550076e-07,2.479519496883059941e-05,1.266698018950296736e-06,1.211632858886874196e-07,1.560836406473509689e-14,4.073431548128483328e-37
3.195327970414461452e+05,2.887915726101676899e-05,6.148525565355478193e+02,1.109443738457561713e-07,2.724332246180368155e-05,1.391765764299234996e-06,1.331246403692019023e-07,2.069889484260253702e-14,4.075049088948024160e-37
3.182738362741203164e+05,3.173162564436633650e-05,6.148549880177878322e+02,1.219045359686397860e-07,2.993421336087181186e-05,1.529235929053598660e-06,1.462717910202865820e-07,2.745199801113934622e-14,4.076827074443942368e-37
3.170148755067944294e+05,3.486706246253890848e-05,6.148576596668943921e+02,1.339523530635308499e-07,3.289204361731175774e-05,1.680343696490893429e-06,1.607227592613708642e-07,3.641136048296206619e-14,4.078781564494661151e-37
3.157559147394685424e+05,3.831365821386094924e-05,6.148605953031772060e+02,1.471962632787288615e-07,3.614340676578959915e-05,1.846447782051748334e-06,1.766073544422199949e-07,4.829865407955497760e-14,4.080930249151532151e-37
3.144969539721427136e+05,4.210242345425292237e-05,6.148638211185677847e+02,1.617555693344328879e-07,3.971755662870511645e-05,2.029042837859518885e-06,1.940683542820044276e-07,6.407184849994488415e-14,4.083292618068647858e-37
3.132379932048168266e+05,4.626747199965977110e-05,6.148673659135118896e+02,1.777615330929144591e-07,4.364667447049173395e-05,2.229773107472382845e-06,2.132628036001100801e-07,8.500263730745857807e-14,4.085890148284163048e-37
3.119790324374909396e+05,5.084633266563325446e-05,6.148712613575733030e+02,1.953585811508225390e-07,4.796616307128795343e-05,2.450447457262112614e-06,2.343634431531241392e-07,1.127792408100851744e-13,4.088746512493317371e-37
3.107200716701650526e+05,5.588029242662340308e-05,6.148755422761208820e+02,2.147056328185573726e-07,5.271497043899047526e-05,2.693055923613273860e-06,2.575602815581927519e-07,1.496429007725120111e-13,4.091887810215283821e-37
3.094611109028392239e+05,6.141477416883406543e-05,6.148802469657060783e+02,2.359775630313763769e-07,5.793594615344399053e-05,2.959787929229920067e-06,2.830623245596878803e-07,1.985691032623475936e-13,4.095342824588853157e-37
3.082021501355133369e+05,6.749975253112412449e-05,6.148854175410006064e+02,2.593668140415588338e-07,6.367623363892476742e-05,3.253052337355574303e-06,3.110994772940430227e-07,2.635081758996094655e-13,4.099143307885399028e-37
3.069431893681874499e+05,7.419021168130802719e-05,6.148911003164439535e+02,2.850851711847047718e-07,6.998770199388572950e-05,3.575499529796260304e-06,3.419246367366376238e-07,3.497046933341705381e-13,4.103324299257922961e-37
3.056842286008616211e+05,8.154664926352381195e-05,6.148973462260646556e+02,3.133657196111089545e-07,7.692742137316048911e-05,3.930045713444795400e-06,3.758159931859444936e-07,4.641214722834660546e-13,4.107924478729815372e-37
3.044252678335357341e+05,8.963563117959669831e-05,6.149042112852828268e+02,3.444650006425206880e-07,8.455818632077946931e-05,4.319899680707306850e-06,4.130795614650537380e-07,6.160023505210615293e-13,4.112986561999798186e-37
3.031663070662098471e+05,9.853040233736585021e-05,6.149117570988718171e+02,3.786653883743130056e-07,9.294909189484384688e-05,4.748592272017241854e-06,4.540519645113499224e-07,8.176190909157876944e-13,4.118557741296871128e-37
3.019073462988840183e+05,1.083115590159597163e-04,6.149200514196738823e+02,4.162777093147426402e-07,1.021761679134907210e-04,5.220008813698021737e-06,4.991034941937026554e-07,1.085262514130333606e-12,4.124690178296436471e-37
3.006483855315581313e+05,1.190677890665830461e-04,6.149291687631077821e+02,4.576441302604565036e-07,1.123230771871903028e-04,5.738424832019201662e-06,5.486414765555855616e-07,1.440557505665756080e-12,4.131441556015045569e-37
